1571067985.00
64.000000
-0.00
-0.00
-0.00
-0.00
-0.00
-0.00
-0.00
-0.00
-0.00
-0.00
0.00
0.01
0.01
-0.00
-0.03
-0.05
-0.05
0.00
0.13
0.36
0.66
1.01
1.37
1.72
2.06
2.40
2.79
3.24
3.80
4.42
5.06
5.66
6.20
6.68
7.15
7.68
8.31
9.14
10.09
11.04
11.88
12.56
13.14
13.76
14.65
15.96
17.91
20.32
22.90
25.38
27.58
29.57
31.68
34.32
37.81
42.54
48.15
54.10
59.83
64.97
69.58
74.14
79.34
85.71
93.76
103.00
112.62
121.73
129.77
136.75
143.30
150.75
157.77
166.64
177.95
191.79
206.97
220.57
228.25
225.36
208.53
176.87
132.76
80.05
23.07
-34.94
-92.44
-149.16
-205.23
-260.37
-313.74
-363.87
-409.83
-450.91
-486.50
-515.74
-537.23
-549.22
-549.96
-538.37
-514.21
-478.67
-433.88
-382.45
-327.02
-269.84
-212.63
-156.66
-102.95
-52.37
-5.90
35.58
71.43
101.35
125.50
144.38
158.69
169.15
176.37
180.75
182.57
182.07
179.51
175.24
169.65
163.17
156.14
148.80
141.30
133.70
126.05
118.37
110.71
103.13
95.70
88.49
81.55
74.91
68.60
62.60
56.91
51.51
46.39
41.55
37.01
32.79
28.92
25.39
22.18
19.23
16.49
13.93
11.54
9.37
7.47
5.90
4.66
3.68
2.82
1.95
0.97
-0.12
-1.21
-2.13
-2.72
-2.94
-2.92
-2.91
-3.19
-3.93
-5.10
-6.45
-7.61
-8.28
-8.33
-7.99
-7.69
-7.92
-8.94
-10.69
-12.75
-14.52
-15.56
-15.74
-15.32
-14.82
-14.78
-15.54
-17.28
-20.01
-23.57
-27.31
-30.03
-30.09
-26.13
-17.73
-5.93
7.05
18.64
26.98
31.60
33.38
33.79
33.99
34.23
33.98
32.45
29.36
25.18
20.98
17.79
16.10
15.56
15.28
14.23
11.81
8.23
4.36
1.31
-0.09
0.37
2.31
5.10
8.14
11.06
13.71
16.08
18.13
19.78
20.91
21.47
21.51
21.18
20.66
20.04
19.40
18.68
17.84
16.93
15.76
14.17
11.91
8.70
4.37
-0.93
-6.72
-12.13
-16.27
-18.57
-19.05
-18.26
-17.09
-16.28
-16.09
-16.26
-16.27
-15.61
-14.20
-12.37
-10.78
-10.08
-10.60
-12.18
-14.25
-16.03
-16.84
-16.41
-14.88
-12.81
-10.92
-9.81
-9.73
-10.52
-11.76
-12.88
-13.46
-13.27
-12.43
-11.37
-10.65
-10.71
-11.68
-13.28
-14.96
-16.14
-16.40
-15.76
-14.65
-13.64
-13.20
-13.40
-13.95
-14.38
-14.32
-13.53
-12.09
-10.28
-8.33
-6.35
-4.22
-1.62
1.90
5.95
10.34
14.89
19.29
23.16
25.97
27.21
26.56
24.07
20.27
16.14
12.75
10.87
10.60
11.30
11.89
11.34
9.14
5.50
1.35
-2.02
-3.56
-2.92
-0.64
2.08
3.90
3.83
1.56
-2.43
-6.98
-10.74
-12.74
-12.74
-11.28
-9.20
-7.30
-6.02
-5.31
-4.28
-1.82
2.63
8.41
13.80
16.85
16.05
10.76
1.49
-9.21
-17.89
-21.97
-21.30
-18.02
-15.00
-14.60
-17.88
-24.30
-30.54
-32.27
-26.68
-14.47
0.65
14.61
24.43
28.69
27.87
26.48
31.43
49.69
85.67
140.40
212.39
296.90
384.52
450.36
468.94
429.47
345.82
246.92
158.51
94.27
55.09
32.47
16.37
2.56
-8.23
-12.07
-7.89
0.51
8.23
10.74
3.30
-15.79
-43.34
-73.36
-101.53
-122.69
-138.12
-150.39
-162.67
-180.05
-205.20
-236.74
-270.76
-304.08
-336.60
-370.97
-407.29
-420.14
-389.18
-308.23
-188.76
-51.03
86.30
209.63
306.43
378.29
425.77
445.94
438.09
406.21
358.81
306.73
260.71
227.20
208.42
201.30
198.55
194.13
185.24
172.68
159.07
146.73
136.64
129.51
124.74
120.16
114.26
106.55
97.65
88.68
80.50
73.33
67.43
62.38
57.22
51.31
44.45
36.90
29.05
21.13
13.13
5.18
-2.66
-10.43
-17.97
-25.12
-31.80
-38.10
-44.25
-50.55
-57.07
-63.67
-69.96
-75.50
-80.09
-83.94
-87.62
-91.91
-97.48
-104.70
-113.41
-123.09
-133.10
-142.99
-152.78
-162.90
-174.10
-187.08
-202.20
-219.31
-237.86
-256.99
-275.87
-293.93
-311.15
-328.43
-347.78
-371.89
-402.96
-440.91
-481.92
-518.29
-540.32
-539.37
-510.74
-455.26
-378.98
-291.07
-201.83
-121.12
-57.22
-15.68
1.99
-0.92
-16.97
-37.12
-54.04
-64.67
-70.44
-75.27
-83.06
-96.02
-114.73
-138.85
-167.70
-200.01
-233.32
-264.09
-288.89
-306.06
-316.53
-323.11
-328.48
-333.20
-335.38
-331.88
-320.17
-299.72
-272.29
-240.77
-208.00
-176.00
-145.93
-118.30
-93.26
-70.61
-49.72
-29.63
-9.35
11.75
33.55
55.31
76.14
95.68
114.45
133.91
155.85
181.59
211.33
244.09
278.06
311.39
342.95
372.71
401.70
431.95
465.98
505.83
551.80
601.05
647.08
680.62
692.23
675.74
631.00
564.46
487.29
411.67
347.05
298.02
263.86
240.33
222.03
204.61
185.76
165.28
144.38
124.97
109.16
98.44
93.25
92.96
95.71
98.47
97.82
91.15
78.07
61.24
45.09
34.11
30.81
34.72
42.09
46.55
41.16
20.82
-15.02
-62.26
-111.85
-151.53
-169.08
-156.76
-115.33
-54.13
12.32
70.17
109.29
125.69
121.05
100.90
71.75
38.44
4.46
-31.22
-63.47
-85.47
-93.50
-89.74
-79.99
-71.50
-69.67
-76.78
-92.45
-113.87
-139.87
-169.16
-202.84
-242.74
-281.84
-313.70
-335.30
-347.38
-350.18
-341.62
-317.91
-276.84
-220.45
-155.80
-94.17
-45.97
-16.48
-3.99
-2.61
-5.88
-9.38
-11.51
-12.34
-12.93
-13.50
-13.20
-10.30
-4.21
4.13
13.45
22.48
31.03
39.28
47.70
56.61
65.91
74.68
81.57
86.07
88.26
89.08
89.74
91.49
95.51
103.05
115.52
129.41
143.00
154.37
161.68
163.68
160.53
154.00
146.76
140.71
135.25
127.71
113.23
87.09
46.94
-6.33
-69.48
-139.03
-212.86
-290.11
-368.79
-444.56
-510.05
-556.61
-577.72
-572.09
-544.51
-503.87
-459.51
-417.47
-379.77
-345.28
-311.92
-278.53
-245.29
-212.98
-181.91
-151.48
-120.44
-88.08
-54.71
-21.51
10.10
39.51
67.40
95.50
125.76
159.34
196.00
234.11
271.42
306.20
338.04
368.18
399.22
434.51
476.92
527.47
583.98
640.48
688.10
717.45
721.71
699.10
653.39
592.27
524.26
455.80
389.98
327.18
267.03
210.32
159.67
118.77
90.71
76.26
73.05
76.05
78.95
76.17
64.59
44.42
18.84
-7.28
-29.21
-43.77
-50.01
-48.98
-42.97
-34.66
-26.57
-21.01
-20.01
-25.21
-37.72
-57.62
-83.89
-114.87
-148.76
-184.09
-219.43
-252.77
-281.77
-304.83
-322.86
-340.00
-362.34
-394.44
-435.84
-479.68
-514.78
-530.55
-521.80
-490.88
-445.80
-395.67
-346.51
-299.51
-252.46
-202.76
-149.77
-94.85
-39.75
14.96
70.25
127.47
186.01
242.10
289.28
320.50
331.03
320.28
292.00
252.91
210.47
171.04
138.84
115.90
102.57
98.04
100.76
108.57
118.98
129.31
137.20
141.17
141.20
139.01
137.45
139.06
144.74
152.95
160.33
163.27
159.54
149.05
133.22
113.60
90.70
63.74
31.48
-6.63
-49.69
-95.71
-142.52
-188.84
-234.45
-279.33
-322.30
-360.10
-387.61
-399.40
-391.66
-363.75
-318.29
-259.77
-192.88
-121.43
-48.72
21.20
82.67
129.24
156.05
162.43
153.09
136.74
122.75
117.21
120.60
127.87
130.97
122.26
97.55
57.59
8.05
-42.07
-82.94
-106.94
-111.22
-98.96
-78.23
-58.63
-47.38
-46.54
-52.82
-59.94
-62.12
-56.67
-44.63
-29.33
-13.98
-0.13
12.44
24.66
36.84
48.24
57.59
64.04
68.06
71.52
76.83
86.13
100.23
118.08
136.94
152.98
161.83
159.40
143.09
112.86
71.90
25.71
-19.98
-61.16
-96.16
-124.71
-146.31
-159.24
-161.54
-152.86
-136.46
-118.86
-107.03
-105.13
-112.84
-126.44
-141.33
-154.45
-163.67
-167.39
-163.60
-150.05
-125.59
-91.33
-50.87
-8.56
32.07
70.70
107.57
141.34
169.02
188.08
198.91
204.80
210.58
218.93
230.95
244.06
253.29
254.46
246.93
233.56
217.97
203.74
193.85
195.07
214.22
254.53
312.57
378.49
439.08
481.85
500.73
478.60
414.35
324.53
234.98
164.30
116.66
89.73
74.13
65.40
62.08
65.66
75.22
87.47
96.75
98.53
91.50
77.05
58.55
38.78
21.38
7.56
-4.04
-16.42
-31.35
-48.82
-67.43
-84.72
-98.75
-107.37
-110.32
-109.25
-106.99
-105.52
-105.84
-107.86
-110.46
-112.31
-111.76
-109.01
-105.16
-101.87
-99.48
-98.78
-100.06
-102.82
-105.66
-106.76
-107.54
-109.61
-114.08
-118.90
-124.87
-133.31
-145.10
-159.13
-173.49
-191.91
-216.93
-248.63
-279.92
-310.24
-342.13
-379.74
-424.57
-474.87
-534.16
-599.67
-662.20
-702.90
-718.73
-717.94
-716.04
-725.89
-754.41
-812.34
-899.09
-1001.98
-1091.00
-1151.41
-1179.32
-1180.19
-1160.90
-1058.22
-851.02
-565.47
-324.73
-152.38
-42.52
35.58
94.08
141.37
183.78
214.71
230.36
233.40
242.06
261.53
290.71
324.64
361.58
401.29
435.10
457.44
468.76
482.41
502.41
528.32
556.57
585.60
614.56
637.27
649.76
652.29
653.86
657.99
665.61
675.90
689.67
708.43
730.54
753.57
774.24
790.54
796.42
785.89
755.95
709.17
652.19
591.86
533.57
480.20
433.18
391.74
355.00
322.56
294.45
269.86
246.63
221.86
193.29
160.39
124.64
88.95
56.32
28.62
6.19
-12.03
-27.79
-42.90
-58.68
-75.79
-94.19
-113.40
-132.56
-150.74
-167.21
-181.68
-194.42
-206.19
-217.79
-229.73
-241.98
-254.01
-265.25
-275.51
-285.44
-296.61
-311.13
-331.22
-358.96
-396.11
-443.65
-500.77
-563.90
-626.21
-678.65
-712.25
-721.03
-704.02
-665.36
-612.39
-552.86
-492.73
-435.37
-382.33
-334.44
-292.48
-256.84
-226.95
-200.93
-176.28
-151.05
-124.83
-98.70
-74.57
-53.99
-37.06
-22.34
-7.30
10.94
34.61
64.49
99.00
133.90
162.64
177.96
174.46
151.05
112.15
66.55
24.36
-6.65
-23.33
-27.04
-21.60
-10.54
4.41
23.13
45.76
71.38
98.08
123.94
148.47
172.93
199.59
229.69
261.78
291.51
313.20
322.12
316.36
297.57
270.38
241.11
215.90
199.38
193.80
198.67
210.93
225.65
237.37
241.79
237.66
226.65
212.20
197.71
185.00
173.93
163.02
150.77
136.71
122.90
111.75
104.34
99.50
94.62
87.09
75.37
59.27
39.77
20.70
5.08
-6.45
-15.79
-25.48
-36.84
-49.69
-63.16
-76.50
-85.70
-88.00
-83.13
-73.09
-59.53
-41.91
-18.31
13.00
52.58
105.23
174.24
258.58
351.50
442.57
521.12
578.77
611.12
588.11
498.60
357.71
201.71
65.10
-36.61
-105.22
-149.70
-178.84
-198.43
-206.34
-200.59
-183.34
-161.11
-141.71
-129.46
-124.49
-125.59
-131.37
-136.38
-136.27
-130.46
-122.38
-117.13
-118.23
-126.96
-141.16
-159.34
-176.83
-188.93
-193.37
-190.99
-185.00
-178.28
-172.13
-169.88
-174.52
-186.02
-202.74
-223.82
-249.98
-284.08
-328.59
-365.00
-379.06
-366.25
-333.23
-290.41
-245.97
-203.68
-166.08
-134.67
-109.53
-94.03
-90.05
-95.53
-102.87
-107.24
-97.66
-68.22
-19.05
45.20
113.15
174.13
222.14
258.51
288.91
320.98
359.76
400.32
444.50
487.36
523.76
543.88
544.22
526.02
494.91
457.48
419.54
385.70
355.81
328.25
301.48
276.06
252.97
232.95
214.96
196.81
177.21
154.66
129.43
103.02
78.21
56.80
39.26
24.44
10.52
-3.46
-18.04
-32.41
-44.95
-53.42
-56.35
-53.40
-45.49
-34.31
-21.44
-8.45
3.76
14.83
24.93
34.18
42.47
49.45
54.64
57.71
58.38
56.55
52.23
45.51
36.41
24.81
10.58
-6.31
-25.66
-47.01
-69.57
-92.36
-114.20
-133.88
-150.19
-162.03
-168.52
-169.03
-163.26
-151.31
-133.72
-111.47
-85.90
-58.45
-30.65
-3.99
20.12
40.41
55.71
64.96
67.29
62.07
49.14
28.87
2.15
-29.76
-65.38
-103.24
-142.09
-180.91
-218.75
-254.69
-287.77
-317.06
-341.94
-362.36
-379.02
-393.16
-406.39
-420.07
-434.91
-451.11
-468.47
-486.88
-506.26
-526.16
-545.34
-561.75
-573.24
-578.48
-577.38
-570.68
-558.97
-541.84
-517.93
-486.13
-447.03
-403.75
-361.29
-324.72
-297.20
-279.03
-268.04
-261.01
-255.15
-248.80
-241.31
-232.39
-221.82
-209.16
-194.13
-176.99
-158.52
-139.91
-122.33
-106.44
-92.27
-79.09
-65.85
-51.49
-35.41
-17.58
1.51
21.04
40.19
58.33
75.08
90.34
104.10
116.39
127.13
136.12
143.17
148.16
151.07
152.05
151.40
149.58
147.18
144.81
143.08
142.44
143.14
145.17
148.36
152.47
157.39
163.23
170.29
178.91
189.17
200.79
213.02
224.91
235.52
244.34
251.46
257.60
263.90
271.55
281.45
293.79
307.98
322.66
336.01
346.30
352.33
353.72
350.90
344.98
337.44
329.81
323.44
319.06
316.42
314.22
310.45
303.08
290.97
274.26
254.01
231.31
206.33
178.42
146.85
112.34
77.77
47.51
25.52
13.18
8.33
5.95
0.21
-13.52
-37.49
-71.78
-114.86
-163.95
-214.74
-261.12
-295.54
-310.50
-300.86
-266.17
-211.71
-147.86
-87.90
-44.51
-26.54
-36.51
-70.01
-117.27
-166.51
-207.92
-236.52
-252.80
-260.87
-265.61
-270.05
-274.54
-277.54
-277.10
-272.02
-261.98
-246.92
-226.30
-198.79
-162.87
-117.85
-64.79
-6.83
51.35
104.81
149.80
185.10
212.17
234.45
255.48
276.71
296.27
309.15
309.08
290.68
251.73
194.32
124.72
52.28
-12.04
-57.69
-76.59
-65.23
-26.26
31.32
93.81
146.42
177.97
184.64
171.02
147.86
127.61
119.67
127.94
151.28
185.98
228.55
276.37
326.31
372.53
405.99
416.45
396.83
347.00
275.02
195.25
123.45
71.68
44.93
40.61
50.63
65.41
77.67
84.67
88.65
94.73
107.87
130.05
159.13
189.88
216.80
236.74
249.84
258.40
264.24
266.72
262.26
245.99
214.75
169.85
118.05
70.36
38.59
30.83
48.27
84.50
127.99
166.71
192.72
204.66
207.09
207.18
210.64
219.25
230.76
240.89
246.02
244.88
238.36
228.16
215.16
198.55
176.18
145.78
106.37
59.10
7.25
-44.70
-92.45
-133.25
-166.65
-194.31
-219.00
-243.60
-270.11
-299.45
-331.76
-366.63
-402.63
-436.63
-463.68
-478.02
-475.76
-457.44
-429.04
-400.29
-381.15
-378.20
-392.72
-420.89
-456.07
-490.72
-517.74
-531.09
-525.94
-499.05
-449.84
-381.15
-299.24
-212.85
-131.81
-65.35
-20.52
-0.61
-3.74
-22.51
-45.45
-59.96
-55.76
-27.88
22.37
87.97
158.15
221.37
268.06
292.60
294.10
275.56
242.19
199.37
151.17
100.33
48.46
-3.43
-54.95
-106.84
-160.99
-219.19
-281.12
-342.94
-397.59
-437.29
-457.05
-457.13
-442.94
-422.62
-403.78
-390.59
-383.38
-379.85
-377.12
-373.22
-367.40
-359.59
-349.64
-337.14
-321.61
-303.06
-282.24
-260.49
-239.28
-219.63
-201.71
-184.98
-168.53
-151.55
-133.83
-115.82
-98.50
-82.96
-69.88
-59.37
-50.90
-43.67
-36.90
-30.20
-23.65
-17.68
-12.85
-9.50
-7.67
-7.05
-7.15
-7.52
-7.94
-8.43
-9.21
-10.61
-12.83
-15.97
-19.96
-24.67
-30.02
-35.94
-42.49
-49.75
-57.73
-66.34
-75.31
-84.17
-92.24
-98.74
-102.82
-103.65
-100.46
-92.59
-79.56
-61.09
-37.22
-8.43
24.31
59.46
95.07
128.99
159.19
184.14
203.05
215.86
223.20
226.03
225.41
222.33
217.72
212.46
207.62
204.49
204.46
208.73
218.03
232.33
250.83
272.33
295.48
319.18
342.76
365.97
389.00
412.56
437.91
466.52
499.07
534.23
568.14
595.10
609.52
608.21
591.77
564.16
530.92
496.97
465.23
436.61
410.93
387.92
367.74
350.75
337.12
326.64
318.83
313.03
308.24
302.83
294.31
279.91
257.47
226.44
188.46
147.00
106.34
70.14
40.24
16.30
-3.73
-22.62
-42.60
-64.60
-87.99
-110.82
-130.29
-143.45
-148.13
-143.98
-133.12
-119.97
-109.83
-106.67
-111.12
-120.13
-128.47
-131.67
-128.69
-122.72
-119.59
-124.63
-139.65
-161.66
-184.08
-199.65
-203.58
-195.12
-177.08
-153.48
-127.19
-98.57
-66.05
-27.82
16.53
65.41
115.89
164.91
209.99
249.15
280.18
300.17
306.02
295.82
270.45
234.10
193.56
156.08
127.20
109.34
101.64
101.07
103.91
107.15
109.02
108.85
106.44
101.29
92.47
78.82
59.57
34.93
6.40
-23.41
-51.35
-74.56
-91.03
-100.00
-101.93
-98.18
-90.61
-80.99
-70.37
-58.55
-43.96
-24.22
2.61
36.47
74.36
110.56
138.16
151.37
147.50
127.68
96.04
57.73
16.93
-24.33
-66.14
-109.82
-156.64
-206.62
-257.98
-307.09
-349.38
-380.65
-398.59
-403.64
-399.15
-390.15
-381.73
-377.10
-376.24
-375.85
-370.67
-355.76
-329.13
-293.50
-256.27
-227.19
-214.64
-221.74
-244.42
-272.43
-293.02
-295.35
-273.77
-228.90
-166.58
-95.79
-26.55
31.75
71.79
89.54
85.03
62.33
28.36
-9.25
-44.01
-71.68
-90.35
-99.60
-100.08
-93.45
-82.40
-70.31
-60.34
-54.13
-51.12
-48.94
-44.66
-36.27
-23.69
-8.64
6.28
18.89
28.31
35.18
40.96
47.11
54.28
61.94
68.61
72.37
71.50
65.01
52.96
36.58
18.01
-0.34
-16.53
-29.62
-39.75
-47.63
-53.80
-58.19
-60.10
-58.79
-54.22
-47.46
-40.44
-35.18
-32.87
-33.25
-34.63
-34.43
-30.11
-19.79
-2.85
20.25
48.31
80.07
114.95
153.63
198.02
250.31
311.17
377.98
444.12
500.15
536.61
547.37
531.73
494.54
444.07
388.98
335.76
287.84
246.31
211.21
182.57
160.48
144.49
133.19
124.34
115.61
105.53
93.83
81.24
68.87
57.50
47.31
38.03
29.30
21.06
13.57
7.21
2.21
-1.58
-4.64
-7.63
-11.28
-16.30
-23.32
-32.80
-44.76
-58.58
-73.04
-86.57
-97.77
-105.96
-111.37
-114.91
-117.67
-120.52
-123.82
-127.52
-131.43
-135.38
-139.36
-143.47
-147.89
-152.85
-158.63
-165.44
-173.39
-182.37
-192.08
-201.99
-211.43
-219.55
-225.29
-227.53
-225.27
-218.05
-206.24
-190.96
-173.71
-155.90
-138.36
-121.38
-105.09
-89.82
-76.31
-65.41
-57.62
-52.64
-49.21
-45.43
-39.35
-29.66
-16.15
0.24
17.78
34.62
49.41
61.62
71.48
79.55
86.18
91.28
94.29
94.57
91.72
85.83
77.34
66.92
55.19
42.91
31.12
21.28
15.21
14.71
21.03
34.52
54.43
79.06
106.14
133.18
157.81
177.95
192.10
199.43
200.00
194.77
185.36
173.71
161.57
150.14
139.96
131.03
123.04
115.67
108.65
101.81
95.18
89.02
83.89
80.43
79.10
79.91
82.36
85.79
89.71
94.05
98.79
103.44
106.60
106.07
99.57
85.71
64.49
37.14
5.44
-29.02
-65.02
-101.34
-136.30
-167.71
-193.39
-212.09
-224.07
-231.07
-235.48
-239.19
-242.83
-245.65
-246.04
-242.51
-234.44
-222.45
-208.09
-193.31
-179.69
-168.00
-158.14
-149.51
-141.58
-134.20
-127.56
-121.80
-116.49
-110.41
-101.72
-88.83
-71.19
-49.81
-26.98
-5.25
13.81
30.17
45.04
59.63
74.06
86.92
95.95
99.37
96.89
89.76
79.81
68.29
55.13
39.37
20.17
-2.19
-26.17
-49.56
-70.49
-88.07
-102.29
-113.38
-121.23
-125.25
-124.78
-119.80
-111.35
-101.34
-91.91
-84.46
-79.14
-74.95
-70.35
-64.12
-55.78
-45.57
-33.90
-20.80
-5.85
11.47
31.16
52.29
73.10
91.62
106.37
117.02
124.36
130.00
135.71
142.91
152.42
164.30
178.05
192.63
206.64
218.30
225.55
226.33
219.05
203.19
179.58
150.26
117.86
84.70
52.27
21.20
-8.30
-35.88
-60.78
-82.08
-99.22
-112.31
-122.03
-129.27
-134.63
-138.34
-140.49
-141.32
-141.43
-141.54
-142.07
-142.88
-143.27
-142.37
-139.60
-134.88
-128.64
-121.51
-114.12
-106.86
-99.85
-92.91
-85.63
-77.33
-67.26
-54.73
-39.43
-21.54
-1.84
18.51
38.22
56.12
71.30
83.01
90.65
93.86
92.61
87.51
79.81
71.10
62.94
56.29
51.35
47.64
44.47
41.23
37.73
34.19
31.15
29.34
29.46
32.01
37.00
43.86
51.45
58.39
63.58
66.57
67.60
67.36
66.38
64.76
62.29
58.76
54.34
49.52
44.76
39.99
34.53
27.44
18.28
7.73
-2.40
-10.08
-14.39
-16.62
-19.91
-27.75
-41.86
-60.91
-80.70
-96.09
-103.40
-102.09
-94.62
-84.86
-75.94
-68.92
-62.93
-56.40
-48.45
-39.52
-31.09
-24.71
-21.14
-20.15
-20.75
-21.81
-22.51
-22.68
-22.71
-23.34
-25.28
-28.91
-34.16
-40.48
-46.98
-52.75
-57.02
-59.26
-59.23
-56.84
-52.10
-45.11
-36.10
-25.65
-14.82
-5.09
1.87
4.76
3.28
-1.59
-7.75
-12.73
-14.57
-12.54
-7.27
-0.24
6.93
13.08
17.69
20.70
22.20
22.23
20.84
18.28
15.13
12.20
10.28
9.85
10.89
13.05
15.77
18.63
21.46
24.39
27.62
31.17
34.70
37.34
37.87
35.06
28.23
17.74
5.21
-6.79
-15.45
-18.71
-16.06
-8.80
0.41
8.50
13.02
12.90
8.57
1.66
-5.59
-10.94
-12.66
-9.95
-3.23
5.79
14.42
19.85
20.22
15.58
8.34
2.59
2.66
11.29
28.13
49.48
69.37
81.71
82.53
71.29
50.83
25.93
1.51
-18.85
-33.48
-42.58
-47.60
-50.69
-54.03
-59.27
-67.09
-77.06
-87.91
-98.15
-106.72
-113.29
-117.99
-121.09
-122.59
-122.47
-121.11
-119.50
-119.03
-120.79
-124.74
-129.45
-132.65
-132.27
-127.21
-117.63
-104.37
-88.24
-69.57
-48.49
-25.61
-2.60
17.94
33.38
42.10
44.18
41.09
34.87
27.18
19.03
11.20
4.81
1.50
2.84
9.42
20.24
32.84
44.21
51.95
55.06
54.10
50.66
46.47
42.69
39.60
36.67
33.03
28.09
21.93
15.35
9.53
5.49
3.60
3.47
4.24
5.06
5.45
5.35
4.79
3.62
1.47
-1.91
-6.21
-10.34
-12.59
-11.31
-5.50
4.94
19.32
36.59
55.76
75.89
95.91
114.36
129.40
139.19
142.46
139.01
129.74
116.31
100.59
84.21
68.34
53.71
40.81
30.01
21.60
15.71
12.24
10.72
10.33
10.06
8.99
6.57
2.76
-1.88
-6.52
-10.33
-12.86
-14.16
-14.69
-14.98
-15.29
-15.53
-15.34
-14.37
-12.56
-10.24
-7.95
-6.28
-5.67
-6.21
-7.71
-9.80
-12.01
-14.00
-15.53
-16.52
-17.04
-17.24
-17.25
-17.18
-17.09
-17.07
-17.24
-17.77
-18.85
-20.51
-22.66
-25.05
-27.37
-29.41
-31.05
-32.23
-32.79
-32.36
-30.38
-26.30
-19.81
-11.10
-0.90
9.66
19.46
27.61
33.64
37.43
39.01
38.40
35.65
31.00
25.02
18.55
12.48
7.47
3.65
0.69
-2.01
-4.94
-8.32
-12.06
-15.94
-19.69
-23.10
-25.94
-27.99
-29.12
-29.40
-29.15
-28.93
-29.31
-30.58
-32.59
-34.80
-36.47
-37.10
-36.65
-35.60
-34.76
-35.03
-37.14
-41.38
-47.58
-54.93
-62.15
-67.54
-69.38
-66.34
-58.00
-45.02
-28.89
-11.57
5.24
20.45
33.72
45.29
55.60
64.94
73.28
80.15
84.90
86.92
86.01
82.60
77.77
72.94
69.39
67.77
67.85
68.66
68.99
67.85
64.83
60.08
54.03
47.24
40.19
33.32
26.95
21.05
15.04
7.83
-1.88
-14.91
-30.88
-48.12
-64.06
-76.32
-83.72
-86.81
-87.49
-88.10
-90.27
-94.14
-98.43
-100.99
-99.76
-93.59
-82.64
-68.27
-52.57
-37.61
-24.83
-14.69
-6.80
-0.40
5.17
10.22
15.01
20.16
26.87
36.54
49.96
66.50
83.98
99.55
111.03
117.96
121.65
124.02
126.13
127.27
125.29
117.99
104.63
86.58
66.79
48.47
33.59
22.24
12.87
3.35
-7.92
-21.25
-35.66
-49.42
-60.85
-69.14
-74.61
-78.65
-82.96
-88.78
-96.09
-103.42
-108.19
-107.65
-99.97
-84.98
-64.29
-40.60
-16.72
5.30
24.48
40.59
53.74
64.26
72.85
80.74
89.25
99.06
109.39
117.99
122.18
120.45
113.60
104.64
97.16
93.33
92.65
92.29
88.66
79.32
63.86
43.57
20.19
-5.30
-33.12
-64.39
-100.38
-141.67
-187.72
-236.64
-285.50
-330.82
-369.37
-399.03
-419.33
-431.39
-437.33
-439.38
-439.18
-437.45
-434.01
-427.94
-417.74
-401.51
-377.42
-344.30
-302.23
-252.69
-198.17
-141.33
-84.31
-28.54
25.02
75.33
120.87
159.60
189.47
209.20
218.83
219.91
215.13
207.23
197.76
186.15
170.05
146.80
115.42
78.00
39.55
6.23
-17.20
-29.15
-31.31
-27.23
-20.29
-12.29
-3.29
7.31
19.92
34.13
48.91
62.88
74.30
81.01
80.74
72.18
56.34
37.13
20.51
12.09
14.39
25.34
39.24
49.77
53.29
50.57
45.83
43.97
47.55
55.71
65.23
73.08
78.38
82.60
88.07
95.84
104.63
111.74
115.01
114.55
112.96
113.89
120.00
131.66
146.95
162.80
176.37
185.73
189.78
187.86
179.66
165.57
147.12
126.85
107.53
91.12
77.96
66.85
55.82
43.16
28.09
10.87
-7.54
-25.98
-43.31
-58.54
-70.78
-79.17
-83.03
-82.09
-76.59
-67.43
-55.86
-43.34
-31.13
-20.08
-10.47
-2.11
5.41
12.44
19.22
26.08
33.75
43.38
56.04
71.78
88.86
103.83
112.67
112.74
104.38
91.24
79.01
72.99
75.88
86.72
101.62
115.57
124.47
126.38
121.59
112.07
100.43
89.17
80.20
74.63
72.61
73.34
75.15
75.92
73.84
68.12
59.42
49.81
42.13
39.12
42.51
52.47
67.55
85.14
102.20
116.16
125.44
129.63
129.21
125.05
117.87
108.11
95.95
81.58
65.49
48.37
30.96
13.72
-3.25
-20.10
-36.88
-53.36
-68.96
-82.97
-95.01
-105.24
-114.37
-123.33
-132.72
-142.41
-151.56
-159.07
-164.17
-166.84
-167.74
-167.58
-166.43
-163.48
-157.34
-146.84
-131.77
-113.08
-92.48
-71.88
-52.90
-36.75
-24.32
-16.06
-11.60
-9.35
-6.61
-0.46
10.83
26.69
43.99
58.15
64.97
62.30
50.81
33.50
14.31
-3.29
-17.26
-27.10
-33.32
-36.70
-37.76
-36.68
-33.68
-29.40
-25.03
-22.05
-21.52
-23.48
-26.81
-29.80
-30.93
-29.64
-26.36
-22.03
-17.35
-12.39
-6.84
-0.57
5.81
11.07
14.01
14.33
13.12
12.50
14.61
20.47
29.30
38.75
45.92
48.60
46.14
39.59
31.08
22.73
15.73
9.98
4.43
-2.07
-10.00
-18.77
-27.19
-34.15
-39.43
-43.77
-48.47
-54.37
-61.30
-68.01
-72.90
-74.95
-74.08
-70.97
-66.38
-60.73
-54.14
-47.07
-40.60
-36.28
-35.30
-37.74
-42.49
-47.99
-53.40
-59.27
-67.29
-79.15
-95.27
-114.20
-133.01
-148.41
-157.84
-160.07
-155.11
-143.82
-127.45
-107.33
-84.85
-61.38
-38.44
-17.58
-0.21
12.74
21.24
26.33
29.98
34.51
41.91
53.19
68.11
85.30
102.73
118.21
129.96
136.96
139.11
137.22
132.73
127.24
122.03
117.61
113.75
109.74
104.92
98.89
91.55
82.89
72.83
61.24
48.16
34.01
19.66
6.12
-5.81
-15.93
-24.57
-32.30
-39.45
-45.76
-50.28
-51.68
-48.78
-40.97
-28.58
-12.85
4.35
21.09
36.02
48.65
59.28
68.51
76.63
83.28
87.64
88.94
87.07
82.84
77.56
72.48
68.14
64.16
59.50
53.16
44.64
34.34
23.36
13.10
4.71
-1.34
-5.27
-7.81
-9.72
-11.46
-13.04
-14.26
-14.98
-15.42
-16.06
-17.44
-19.76
-22.75
-25.90
-28.62
-30.51
-31.28
-30.48
-27.44
-21.38
-11.87
0.82
15.56
30.81
45.32
58.61
71.02
83.08
94.80
105.24
112.77
115.68
113.12
105.30
93.31
78.53
62.08
44.81
27.39
10.70
-4.17
-16.13
-24.58
-29.60
-31.96
-32.79
-33.13
-33.61
-34.36
-35.03
-34.93
-33.24
-29.23
-22.42
-12.75
-0.64
13.03
26.99
39.67
49.34
54.35
53.51
46.69
35.12
21.40
8.88
0.78
-0.85
4.41
15.29
29.42
44.11
57.04
66.79
73.03
76.45
78.47
80.69
84.42
90.24
98.07
107.23
116.79
125.59
132.17
134.72
131.38
120.88
103.16
79.72
53.10
25.92
-0.23
-25.30
-50.41
-76.92
-105.35
-135.09
-164.61
-192.34
-217.26
-239.04
-257.69
-272.91
-283.86
-289.50
-289.52
-285.00
-278.39
-272.45
-268.78
-266.63
-263.01
-254.13
-237.40
-212.89
-183.28
-152.49
-123.64
-97.85
-74.25
-51.28
-28.17
-5.64
14.60
31.18
44.12
54.95
65.83
78.26
92.22
106.25
118.35
127.12
132.34
134.81
135.68
135.59
134.40
131.44
126.15
118.57
109.44
99.77
90.28
81.06
71.57
61.13
49.40
36.73
24.15
12.91
3.97
-2.39
-6.69
-9.84
-12.67
-15.35
-17.28
-17.26
-13.97
-6.55
5.08
20.20
37.61
56.02
74.52
92.67
110.54
128.37
146.31
164.22
181.53
197.41
211.00
221.75
229.62
235.09
238.80
241.16
241.98
240.31
234.75
223.91
206.98
184.13
156.54
126.10
94.83
64.32
35.36
8.00
-18.11
-43.18
-67.09
-89.41
-109.75
-128.12
-144.98
-160.94
-176.16
-190.08
-201.49
-209.19
-212.54
-211.74
-207.56
-200.83
-192.12
-181.74
-170.00
-157.41
-144.50
-131.44
-117.84
-103.03
-86.66
-69.37
-52.85
-39.28
-30.33
-26.42
-26.67
-29.48
-33.51
-38.20
-43.74
-50.62
-58.90
-67.95
-76.50
-83.13
-86.82
-87.31
-85.28
-82.06
-79.15
-77.68
-77.81
-78.74
-78.99
-77.12
-72.32
-64.76
-55.48
-45.93
-37.49
-31.15
-27.38
-26.23
-27.29
-29.79
-32.63
-34.71
-35.22
-33.92
-31.12
-27.48
-23.68
-20.16
-17.08
-14.37
-11.72
-8.74
-4.91
0.26
7.00
15.22
24.46
34.07
43.49
52.33
60.24
66.78
71.34
73.38
72.90
70.76
68.56
68.10
70.62
76.20
83.73
91.42
97.45
100.57
100.31
96.90
91.15
84.35
78.20
74.53
74.69
78.82
85.46
91.81
94.69
91.79
82.45
67.77
49.78
30.43
10.87
-8.65
-28.11
-47.00
-63.94
-76.87
-83.92
-84.18
-78.26
-68.05
-55.98
-44.10
-33.48
-24.21
-15.81
-7.89
-0.54
5.80
10.64
13.85
15.69
16.65
17.06
16.97
16.20
14.67
12.55
10.25
8.20
6.57
5.22
3.80
1.94
-0.60
-4.00
-8.39
-13.86
-20.41
-27.79
-35.50
-42.85
-49.15
-53.99
-57.33
-59.47
-60.86
-61.87
-62.59
-62.68
-61.63
-59.01
-54.78
-49.36
-43.40
-37.40
-31.42
-25.09
-18.00
-10.07
-1.79
6.15
13.25
19.67
26.06
33.04
40.58
47.69
52.86
54.70
52.72
47.58
40.68
33.53
27.10
21.59
16.67
11.90
7.11
2.44
-1.85
-5.67
-9.25
-12.98
-17.13
-21.45
-25.17
-27.37
-27.46
-25.57
-22.41
-18.84
-15.30
-11.64
-7.47
-2.70
2.11
5.83
7.46
6.62
3.85
0.30
-3.01
-5.55
-7.47
-9.15
-10.83
-12.39
-13.45
-13.66
-12.93
-11.45
-9.45
-7.13
-4.49
-1.54
1.65
4.73
7.18
8.45
8.26
6.84
4.92
3.47
3.31
4.72
7.37
10.62
13.94
17.26
20.85
24.95
29.35
33.25
35.61
35.70
33.67
30.45
27.35
25.30
24.39
23.90
22.66
19.68
14.47
7.05
-2.25
-12.97
-24.64
-36.59
-47.94
-57.64
-64.82
-68.99
-70.22
-68.84
-65.18
-59.35
-51.32
-41.26
-29.87
-18.36
-8.11
-0.12
5.17
7.91
8.52
7.45
5.08
1.93
-1.23
-3.48
-4.07
-2.77
0.11
3.91
8.03
12.24
16.61
21.18
25.68
29.49
31.80
31.98
29.83
25.71
20.31
14.43
8.73
3.53
-1.19
-5.68
-10.28
-15.13
-20.10
-24.79
-28.71
-31.56
-33.36
-34.37
-34.94
-35.11
-34.53
-32.52
-28.40
-21.79
-12.94
-2.57
8.38
19.08
29.01
37.97
45.99
53.31
60.35
67.64
75.64
84.35
93.13
100.59
104.99
104.93
99.97
90.97
79.85
68.81
59.47
52.22
46.12
39.45
30.69
19.28
6.07
-7.06
-18.11
-25.92
-30.66
-33.68
-36.59
-40.40
-44.96
-49.10
-51.27
-50.40
-46.37
-40.13
-33.28
-27.37
-23.18
-20.17
-16.42
-9.15
4.24
25.15
52.95
85.17
118.26
148.62
173.58
191.84
203.72
211.07
217.01
225.24
238.83
258.75
283.02
307.02
325.04
332.47
327.43
310.91
285.81
255.20
221.29
185.45
148.98
113.82
82.57
57.61
39.93
28.52
20.49
12.04
-0.32
-18.67
-42.90
-70.46
-96.69
-116.02
-123.74
-117.81
-99.84
-74.67
-48.63
-27.28
-13.63
-7.68
-7.18
-9.00
-10.36
-9.48
-5.74
0.45
7.70
14.16
18.24
19.60
19.78
21.72
28.42
41.21
58.79
77.54
93.02
101.70
102.11
94.85
81.63
64.26
44.09
22.10
-0.63
-22.77
-42.95
-60.41
-75.57
-90.01
-105.91
-125.05
-148.12
-174.34
-201.84
-228.56
-252.89
-274.20
-292.95
-310.51
-328.67
-348.87
-371.11
-393.04
-409.91
-415.72
-405.38
-376.96
-333.04
-279.92
-225.44
-176.07
-134.96
-101.84
-74.37
-50.20
-28.18
-8.42
8.63
23.04
35.58
47.14
57.95
67.27
73.77
76.59
76.15
74.11
72.44
72.06
71.97
69.63
62.29
48.54
29.29
7.35
-13.83
-31.83
-46.07
-57.68
-68.44
-79.60
-91.21
-102.22
-111.12
-116.80
-119.05
-118.80
-117.84
-118.16
-121.16
-126.95
-134.25
-141.01
-145.34
-146.46
-144.90
-141.85
-138.05
-133.02
-125.05
-111.83
-91.36
-62.62
-25.85
17.25
63.34
107.40
143.31
165.39
170.33
158.71
134.90
105.36
76.01
50.15
27.95
7.66
-12.50
-32.93
-52.45
-69.25
-81.98
-90.37
-95.13
-97.36
-97.88
-96.94
-94.30
-89.66
-83.01
-74.88
-66.23
-58.19
-51.65
-46.93
-43.80
-41.68
-40.07
-38.83
-38.33
-39.07
-41.38
-45.11
-49.67
-54.27
-58.18
-60.85
-61.93
-61.14
-58.22
-53.07
-45.89
-37.21
-27.87
-18.80
-10.76
-4.17
0.96
5.01
8.56
12.21
16.37
21.03
25.77
29.91
32.95
35.00
37.06
40.91
48.64
61.75
80.44
103.30
127.79
151.26
172.28
191.35
210.73
233.31
261.06
293.86
329.35
363.74
393.02
413.99
424.76
424.66
413.95
393.63
365.32
331.27
293.99
255.79
218.25
181.87
146.03
109.49
71.38
32.13
-5.99
-39.19
-63.52
-76.60
-78.79
-73.23
-64.50
-56.66
-51.80
-49.86
-49.62
-50.14
-51.69
-55.57
-63.01
-73.99
-86.71
-97.98
-104.54
-104.33
-97.34
-85.68
-72.78
-62.18
-56.50
-56.80
-62.72
-72.93
-85.60
-98.67
-109.84
-116.64
-116.87
-109.37
-94.77
-75.73
-56.26
-40.52
-31.37
-29.54
-33.75
-41.42
-49.81
-56.81
-61.27
-62.83
-61.67
-58.27
-53.30
-47.68
-42.56
-39.16
-38.47
-41.00
-46.74
-55.09
-65.13
-75.66
-85.46
-93.33
-98.30
-99.87
-98.04
-93.35
-87.15
-80.68
-74.57
-68.90
-63.59
-58.63
-54.70
-52.50
-52.32
-54.18
-57.13
-59.20
-58.08
-52.08
-40.60
-24.62
-5.86
13.83
31.54
45.09
53.56
57.13
56.30
51.94
44.02
32.81
19.05
0.28
-24.56
-53.73
-83.16
-108.92
-127.77
-140.80
-150.05
-157.22
-170.57
-195.11
-229.41
-266.82
-300.42
-324.03
-339.88
-351.93
-363.42
-388.01
-434.06
-499.30
-572.36
-640.59
-691.82
-726.69
-748.79
-761.74
-784.16
-829.46
-897.81
-976.98
-1051.36
-1104.17
-1134.57
-1146.08
-1047.36
-799.87
-434.09
-32.68
326.72
572.09
733.16
839.68
910.66
956.77
975.05
960.29
917.82
862.64
809.41
771.04
743.63
720.77
698.46
663.89
609.55
538.60
462.53
393.36
342.60
309.10
289.23
279.73
270.77
255.31
233.43
211.31
195.61
192.51
199.41
211.31
223.25
227.69
219.46
198.21
168.26
134.16
101.58
72.42
47.63
27.76
11.43
-3.48
-19.26
-36.95
-59.65
-87.19
-117.39
-144.54
-160.61
-158.19
-133.99
-90.79
-35.19
19.62
64.07
93.74
110.32
119.75
128.53
140.50
155.43
172.50
185.33
191.83
192.31
188.60
182.61
175.12
165.72
138.85
113.31
86.24
57.37
25.32
-12.17
-56.87
-108.22
-162.39
-212.95
-250.90
-274.53
-283.46
-281.00
-272.28
-261.90
-252.32
-243.66
-234.54
-221.56
-205.90
-187.62
-167.36
-146.04
-124.61
-104.06
-85.32
-69.06
-54.48
-42.54
-32.40
-22.96
-13.37
-3.31
6.67
15.50
22.16
26.99
30.54
35.64
46.26
66.21
97.17
136.68
177.37
208.23
218.23
200.01
154.07
89.12
19.43
-40.18
-79.56
-96.09
-94.51
-83.96
-74.13
-72.07
-80.74
-99.22
-123.88
-149.72
-171.63
-185.34
-188.04
-178.62
-157.85
-128.24
-93.53
-58.07
-25.85
0.39
19.88
34.05
46.23
60.55
80.42
107.03
138.49
170.01
195.41
209.41
209.68
197.87
178.90
158.97
143.00
132.92
127.42
123.18
116.79
106.35
92.00
75.33
58.25
41.95
26.58
11.49
-4.05
-20.52
-37.70
-54.87
-70.80
-83.80
-91.91
-93.37
-87.38
-74.78
-58.03
-40.14
-23.34
-7.70
9.05
30.35
58.73
93.97
132.36
167.79
193.90
206.62
205.63
194.47
179.00
165.03
156.22
153.03
153.37
154.27
153.78
151.97
150.41
150.63
152.73
155.12
155.36
151.79
144.69
136.42
130.65
130.81
138.74
154.14
174.50
196.02
214.96
228.84
237.20
241.26
242.78
242.53
239.68
232.09
217.88
197.17
172.83
149.96
134.11
129.31
136.80
154.96
180.15
207.89
233.99
255.02
268.61
273.39
269.01
256.15
236.49
212.46
186.80
162.02
139.82
120.93
105.13
91.69
79.76
68.73
58.32
48.49
39.18
30.15
20.98
11.04
-0.27
-13.39
-28.59
-45.86
-65.08
-86.09
-108.75
-133.03
-159.14
-187.54
-218.80
-253.10
-289.63
-326.10
-358.90
-383.89
-397.65
-398.62
-387.63
-367.35
-341.14
-311.81
-280.81
-248.37
-214.19
-178.29
-141.61
-106.02
-73.84
-47.18
-27.42
-14.95
-9.26
-9.24
-13.63
-21.23
-31.11
-42.57
-55.08
-68.21
-81.54
-94.53
-106.47
-116.41
-123.22
-125.87
-123.84
-117.49
-108.22
-98.13
-89.48
-83.85
-81.76
-82.74
-85.87
-90.70
-97.79
-108.75
-125.21
-147.33
-172.45
-194.78
-206.52
-200.29
-171.89
-122.18
-57.23
13.39
79.57
133.52
171.39
193.37
202.32
201.81
194.49
181.16
160.79
131.40
91.35
40.72
-17.77
-78.64
-134.70
-178.66
-204.87
-210.44
-195.41
-162.16
-114.58
-57.52
3.24
60.85
107.83
137.23
144.57
129.55
96.67
54.20
12.01
-21.03
-38.84
-38.89
-21.91
8.71
47.52
87.58
121.22
141.49
144.06
128.65
99.61
64.76
32.84
10.64
0.87
1.76
8.30
14.67
16.30
11.17
-0.26
-15.98
-33.62
-51.32
-68.00
-83.17
-96.41
-106.70
-112.24
-110.69
-99.84
-78.62
-47.78
-9.89
31.17
71.15
106.15
132.92
148.86
152.14
142.20
120.35
90.02
56.19
24.10
-2.26
-21.05
-32.67
-38.89
-41.92
-43.69
-45.48
-47.93
-51.00
-54.03
-55.94
-55.76
-53.33
-49.89
-47.92
-50.15
-57.93
-69.87
-81.69
-87.66
-83.16
-66.86
-41.58
-13.05
12.58
31.06
40.94
42.78
37.67
26.35
9.55
-10.79
-30.86
-45.68
-51.15
-46.18
-33.58
-19.02
-8.51
-5.96
-11.85
-23.70
-37.78
-50.82
-61.01
-67.88
-71.61
-72.30
-69.79
-63.95
-55.10
-44.38
-33.60
-24.78
-19.55
-18.64
-21.72
-27.58
-34.63
-41.39
-47.01
-51.45
-55.27
-59.11
-63.15
-66.66
-68.13
-65.79
-58.25
-45.32
-28.24
-9.46
7.99
21.29
28.38
28.30
21.10
7.72
-10.35
-31.20
-52.83
-73.47
-91.96
-107.86
-121.22
-132.46
-141.62
-148.39
-152.25
-152.73
-149.70
-143.43
-134.74
-125.09
-116.50
-110.92
-109.23
-110.32
-110.90
-106.41
-92.93
-68.91
-35.83
2.57
42.30
81.13
119.62
160.25
205.31
254.62
304.31
347.58
376.92
387.01
376.58
348.79
309.67
265.20
219.16
172.45
124.26
74.31
24.54
-20.96
-57.54
-82.44
-96.04
-101.57
-103.16
-103.85
-104.85
-106.49
-110.31
-120.15
-140.96
-175.89
-223.10
-274.96
-320.31
-349.11
-356.48
-344.25
-319.01
-288.23
-256.84
-226.11
-194.98
-162.30
-128.40
-94.85
-63.04
-32.72
-1.64
33.69
76.52
128.32
187.74
250.38
309.73
358.89
392.72
409.54
411.60
403.90
391.91
379.19
366.13
350.46
328.98
299.83
263.87
224.60
186.77
154.36
129.13
110.12
94.46
78.83
60.93
40.51
19.11
-0.86
-17.59
-30.86
-42.36
-54.76
-70.48
-90.41
-113.42
-136.90
-157.61
-172.84
-181.13
-182.45
-178.34
-172.15
-168.93
-174.68
-194.30
-229.01
-274.63
-322.09
-360.37
-380.83
-380.55
-362.98
-335.54
-305.77
-278.12
-253.19
-229.26
-204.60
-179.04
-153.67
-129.52
-106.12
-81.29
-52.08
-16.19
27.00
76.21
128.43
179.81
226.38
264.74
292.61
309.11
314.77
311.13
300.07
283.24
261.87
237.01
209.89
182.23
156.04
133.16
114.64
100.54
90.02
81.96
75.36
69.62
64.49
59.90
55.82
52.07
48.55
45.27
42.69
41.68
43.38
48.84
58.60
72.49
89.77
109.53
131.11
154.42
179.78
207.70
238.39
271.36
305.29
338.15
367.62
391.61
408.61
417.83
419.24
413.38
401.25
384.26
364.32
343.84
325.18
309.98
298.21
288.01
276.21
259.65
236.57
207.33
174.12
139.84
106.86
76.24
47.79
20.73
-5.64
-31.45
-56.38
-79.84
-101.22
-119.88
-135.15
-146.35
-153.02
-155.14
-153.16
-147.93
-140.46
-131.69
-122.51
-113.78
-106.47
-101.60
-100.10
-102.64
-109.40
-120.04
-133.78
-149.62
-166.73
-184.84
-204.38
-225.99
-249.55
-273.31
-293.62
-305.80
-305.66
-291.10
-262.73
-223.38
-176.78
-126.25
-74.33
-23.31
23.81
62.93
89.70
101.18
97.41
81.67
59.33
35.71
14.41
-3.39
-18.37
-32.00
-45.50
-59.52
-74.17
-89.15
-103.58
-115.80
-123.39
-123.95
-116.23
-101.15
-82.01
-63.69
-51.03
-47.51
-54.39
-70.90
-94.71
-122.68
-151.35
-177.24
-197.34
-209.67
-213.85
-211.13
-203.88
-194.45
-184.16
-172.86
-159.67
-144.63
-129.97
-119.95
-119.14
-129.78
-149.97
-173.83
-193.87
-204.05
-202.23
-190.36
-172.88
-154.24
-137.13
-122.25
-109.36
-98.66
-91.40
-89.49
-94.12
-104.61
-117.99
-129.55
-134.28
-128.56
-111.32
-84.17
-50.53
-13.88
23.77
62.35
102.98
146.13
189.98
230.02
260.42
276.39
276.46
263.20
242.14
219.19
198.31
180.41
164.12
147.75
131.04
115.85
105.20
101.59
105.58
115.40
127.68
138.80
145.95
147.71
143.76
134.43
120.33
102.25
81.31
59.00
37.05
17.13
0.46
-12.37
-21.37
-26.95
-29.68
-30.04
-28.32
-24.77
-19.80
-14.21
-9.23
-6.42
-7.12
-12.11
-21.12
-32.93
-45.74
-57.74
-67.59
-74.64
-78.78
-80.23
-79.46
-77.20
-74.57
-73.03
-73.95
-78.19
-85.70
-95.51
-106.18
-116.23
-124.51
-130.27
-133.07
-132.60
-128.88
-122.19
-112.91
-100.96
-85.41
-64.36
-35.75
1.37
45.70
93.38
138.88
176.82
203.71
218.94
224.59
224.24
221.54
219.06
217.80
217.32
216.05
211.86
202.56
186.38
162.51
131.36
94.71
55.44
17.12
-16.76
-43.48
-61.64
-71.38
-74.13
-72.04
-67.16
-60.83
-53.39
-44.47
-33.48
-20.21
-5.29
9.87
23.30
33.10
37.93
37.48
32.58
24.92
16.55
9.19
3.92
1.03
0.29
1.17
2.95
4.54
4.40
0.67
-8.13
-22.35
-40.65
-60.28
-78.06
-91.61
-100.26
-105.03
-107.86
-110.58
-114.11
-118.35
-122.64
-126.24
-128.63
-129.38
-127.95
-123.67
-115.99
-104.76
-90.45
-73.98
-56.43
-38.83
-22.10
-7.24
4.76
13.06
17.42
18.49
17.86
17.59
19.52
24.60
32.54
41.91
50.59
56.43
57.94
54.54
46.79
36.03
23.90
11.90
0.96
-8.62
-16.98
-24.51
-31.56
-38.47
-45.43
-52.37
-58.90
-64.19
-67.09
-66.50
-61.72
-52.82
-40.67
-26.76
-12.81
-0.36
9.39
15.81
18.79
18.77
16.64
13.56
10.70
9.01
9.14
11.39
15.77
21.90
28.85
35.21
39.38
40.13
37.11
30.92
22.72
13.55
3.76
-7.01
-19.34
-33.33
-48.21
-62.47
-74.42
-82.81
-87.08
-87.23
-83.64
-76.84
-67.47
-56.31
-44.09
-31.45
-18.84
-6.61
4.81
14.80
22.70
28.10
31.10
32.31
32.53
32.40
32.20
31.98
31.89
32.41
34.09
37.19
41.19
44.72
46.10
43.91
37.72
28.27
17.10
5.90
-4.18
-12.89
-20.84
-29.06
-38.46
-49.35
-61.25
-73.01
-83.15
-90.30
-93.60
-92.93
-88.79
-82.12
-73.86
-64.69
-54.93
-44.71
-34.12
-23.41
-12.99
-3.39
4.80
11.04
15.12
17.63
20.28
25.84
37.23
56.23
82.23
111.93
140.32
162.42
175.19
178.33
173.90
165.06
154.65
144.36
134.64
125.14
115.15
103.89
90.48
74.02
53.81
29.50
1.36
-29.78
-62.70
-96.11
-128.87
-160.11
-189.28
-216.13
-240.65
-262.94
-283.11
-301.02
-315.92
-326.05
-328.54
-319.98
-297.34
-259.16
-206.46
-142.81
-73.84
-6.19
53.43
99.01
126.12
132.73
120.09
93.12
59.72
28.99
8.76
3.59
13.98
37.04
68.00
101.75
133.91
161.32
182.10
195.46
201.42
200.40
192.86
179.14
159.87
136.55
111.99
89.75
73.18
64.21
62.85
67.70
77.04
89.73
105.19
122.91
141.68
159.63
174.69
185.30
190.79
191.18
186.62
177.01
162.02
141.51
116.01
86.85
55.92
25.35
-2.95
-27.48
-47.32
-62.21
-72.50
-78.87
-81.88
-81.64
-77.58
-68.80
-54.51
-34.60
-9.91
17.83
46.48
73.88
98.32
118.63
134.22
145.16
152.43
157.93
164.05
172.80
184.39
196.54
204.91
204.96
194.32
174.56
151.24
132.33
125.23
133.74
156.33
186.27
213.56
228.22
223.56
198.41
157.33
108.33
59.60
16.25
-21.03
-55.02
-89.39
-126.47
-166.73
-209.34
-253.36
-297.78
-340.21
-375.52
-396.15
-394.34
-365.93
-312.97
-243.54
-168.64
-98.07
-37.60
10.67
46.13
67.08
70.11
51.84
12.08
-44.10
-107.24
-167.22
-217.81
-259.11
-296.45
-335.94
-379.72
-423.72
-459.38
-478.37
-477.08
-458.90
-432.27
-406.33
-386.69
-373.63
-363.65
-352.54
-338.26
-321.66
-305.27
-291.34
-280.36
-270.96
-260.76
-247.66
-230.77
-210.56
-188.30
-165.28
-142.15
-118.68
-94.06
-67.44
-38.44
-7.30
25.27
58.52
91.86
124.95
157.42
188.73
217.98
244.23
266.83
285.85
302.08
316.68
330.54
343.76
355.62
365.05
371.37
375.06
377.98
382.99
393.30
411.81
440.42
479.38
526.47
576.56
621.99
654.21
666.11
654.44
620.82
570.81
511.62
449.40
387.47
326.32
265.06
203.52
143.67
89.69
46.42
17.27
2.46
-1.26
0.68
2.98
2.64
-0.15
-2.90
-2.69
1.97
10.51
20.97
31.58
41.92
53.18
67.29
85.52
107.54
131.12
152.60
168.15
174.92
172.00
160.62
143.53
123.84
103.78
84.08
64.14
42.94
20.00
-4.06
-27.74
-49.37
-68.14
-84.34
-99.28
-114.44
-130.67
-147.96
-165.70
-183.47
-201.39
-219.95
-239.18
-257.97
-273.99
-284.56
-288.05
-284.76
-276.97
-267.62
-258.95
-251.70
-245.52
-240.02
-235.42
-232.33
-230.89
-230.11
-228.15
-223.60
-216.58
-208.76
-201.96
-196.40
-189.88
-178.82
-160.84
-137.15
-113.36
-97.61
-97.64
-117.58
-156.59
-208.97
-266.07
-318.16
-356.08
-372.79
-365.18
-335.90
-293.85
-251.92
-221.95
-210.05
-213.81
-223.71
-227.92
-218.14
-193.19
-158.61
-122.79
-91.34
-65.96
-45.55
-28.95
-16.75
-10.80
-12.46
-20.81
-32.22
-39.66
-37.19
-22.82
0.64
27.41
52.12
72.07
87.58
101.37
120.13
148.83
188.31
234.49
280.92
322.29
356.27
383.36
406.58
434.94
476.67
535.42
607.41
682.60
748.56
794.48
813.77
779.85
683.26
536.29
370.29
217.78
96.25
6.39
-59.83
-111.91
-155.83
-187.93
-206.51
-212.41
-210.63
-208.03
-209.97
-218.86
-236.35
-263.52
-298.00
-335.48
-372.72
-407.43
-436.64
-455.95
-452.88
-421.98
-368.93
-306.30
-247.72
-201.46
-169.29
-148.69
-136.01
-128.60
-126.55
-130.18
-137.42
-144.12
-146.58
-143.51
-135.89
-126.07
-116.57
-109.94
-107.24
-107.14
-106.82
-103.45
-97.55
-90.50
-84.38
-81.07
-82.27
-88.39
-98.29
-109.77
-120.57
-129.18
-134.77
-137.32
-137.24
-135.22
-131.60
-126.21
-118.41
-107.68
-93.86
-77.06
-57.87
-37.26
-16.45
3.37
21.31
36.85
49.85
60.47
69.22
76.62
83.02
88.52
92.98
96.23
98.23
99.30
100.08
101.53
104.48
109.41
116.31
124.83
134.42
144.69
155.47
166.80
179.04
192.92
209.57
230.20
255.32
283.72
311.73
333.24
341.08
329.10
294.35
238.21
166.30
87.03
9.74
-57.18
-107.43
-137.57
-147.22
-138.84
-117.20
-88.24
-57.61
-29.39
-5.32
15.22
34.35
54.55
77.21
101.78
125.44
143.94
152.97
149.88
134.95
111.50
84.75
59.93
40.18
25.49
13.06
-1.02
-19.51
-42.34
-66.42
-86.91
-99.32
-101.51
-94.32
-80.78
-64.30
-47.01
-29.18
-9.89
11.80
36.07
62.53
90.86
121.25
153.91
188.13
221.39
249.47
267.72
273.01
265.10
247.05
224.05
201.61
183.74
171.65
163.48
154.81
140.16
114.90
77.15
28.90
-24.38
-75.16
-116.31
-143.32
-155.44
-155.75
-150.29
-146.59
-151.99
-171.65
-206.67
-252.97
-301.51
-340.70
-360.09
-354.14
-324.25
-277.98
-226.02
-178.14
-140.32
-114.05
-97.76
-89.07
-86.19
-87.82
-92.04
-95.56
-94.22
-84.84
-67.26
-45.10
-24.66
-11.88
-9.49
-15.50
-24.13
-28.41
-23.16
-6.32
21.42
58.36
103.28
155.47
213.54
273.82
329.95
374.29
400.76
407.76
399.38
384.25
372.52
372.36
387.49
416.57
454.37
493.77
527.74
550.76
559.40
552.50
530.91
497.13
454.73
407.76
360.12
315.02
274.63
239.87
210.29
184.36
159.94
135.04
108.56
80.66
52.43
25.34
0.47
-22.02
-42.91
-63.48
-85.05
-108.51
-134.07
-161.24
-188.76
-214.80
-237.26
-254.40
-265.34
-270.43
-270.98
-268.50
-263.90
-256.98
-246.78
-232.34
-213.61
-191.75
-168.69
-146.18
-124.95
-104.45
-83.22
-59.71
-32.90
-2.61
30.52
65.17
99.49
131.06
157.13
175.05
182.99
180.50
168.70
149.93
127.00
102.32
77.40
52.77
28.31
3.65
-21.55
-47.53
-74.60
-103.11
-133.44
-165.63
-199.12
-232.69
-264.61
-293.09
-316.69
-334.56
-346.44
-352.40
-352.66
-347.50
-337.37
-323.02
-305.62
-286.65
-267.55
-249.39
-232.68
-217.38
-203.18
-189.81
-177.22
-165.67
-155.43
-146.50
-138.36
-129.97
-120.03
-107.42
-91.60
-72.82
-52.22
-31.40
-12.05
4.56
17.86
27.98
35.44
40.86
44.67
47.14
48.53
49.24
49.78
50.60
51.78
52.88
52.99
50.83
45.02
34.18
17.22
-6.28
-35.53
-68.39
-101.47
-131.03
-154.14
-169.58
-178.16
-182.11
-184.13
-186.33
-189.56
-193.16
-195.09
-192.42
-181.84
-160.48
-126.88
-81.87
-29.15
25.07
73.38
109.24
128.90
132.53
123.91
108.87
93.21
80.89
73.34
69.79
68.36
67.22
65.38
62.63
59.33
55.94
52.80
50.12
48.00
46.39
45.18
44.13
42.97
41.45
39.40
36.79
33.97
31.66
30.92
32.67
37.18
43.53
49.64
52.95
51.38
44.31
32.98
20.03
8.56
0.99
-1.80
-0.61
2.38
4.43
3.12
-2.92
-13.57
-27.28
-41.71
-54.54
-64.20
-70.11
-72.55
-72.10
-69.54
-65.85
-62.60
-61.69
-64.47
-70.65
-77.69
-81.43
-77.73
-64.19
-40.91
-9.83
26.83
67.85
113.07
162.02
212.37
259.18
295.96
316.77
318.48
301.73
270.23
229.13
183.23
136.20
90.58
48.30
11.24
-18.73
-40.30
-53.14
-58.17
-57.32
-52.82
-46.53
-39.50
-31.96
-23.76
-14.82
-5.48
3.59
11.62
18.15
23.16
26.92
29.78
31.75
32.51
31.55
28.58
23.94
18.68
14.27
12.03
12.64
15.87
20.81
26.38
31.76
36.64
41.04
44.98
48.27
50.60
51.77
52.00
52.02
52.87
55.56
60.79
68.83
79.51
92.34
106.52
120.91
134.11
144.50
150.53
151.15
146.10
136.15
122.89
108.20
93.64
79.91
66.84
53.75
40.13
26.05
12.13
-0.96
-13.03
-24.61
-36.65
-49.79
-63.84
-77.92
-91.00
-102.76
-114.05
-126.43
-141.32
-158.97
-178.16
-196.56
-211.87
-222.76
-229.41
-233.23
-236.01
-239.03
-242.61
-246.14
-248.70
-249.73
-249.44
-248.80
-248.98
-250.58
-252.83
-253.47
-249.21
-236.88
-214.59
-182.65
-143.55
-101.22
-59.90
-22.98
7.48
30.79
47.07
56.84
60.60
58.90
52.52
42.63
30.93
19.45
10.22
4.78
3.86
7.21
13.79
22.16
30.97
39.24
46.47
52.55
57.71
62.67
68.88
78.53
94.01
117.10
148.05
185.17
225.21
264.35
299.30
327.91
349.10
362.37
367.36
363.73
351.61
332.03
307.06
279.46
252.00
226.85
205.26
187.71
174.24
164.81
159.39
157.92
160.10
165.31
172.76
181.58
191.04
200.42
208.88
215.28
218.26
216.49
209.14
196.18
178.40
157.15
133.93
110.14
86.89
64.97
44.85
26.50
9.39
-7.52
-25.39
-44.97
-66.22
-88.28
-109.79
-129.59
-147.26
-163.36
-179.22
-196.45
-216.50
-240.26
-267.65
-297.32
-326.46
-351.08
-366.87
-370.73
-362.24
-344.24
-322.04
-301.25
-285.53
-275.21
-267.78
-259.67
-248.30
-233.24
-215.93
-198.39
-181.87
-166.32
-150.86
-134.79
-118.32
-102.61
-89.13
-78.61
-70.60
-63.45
-54.94
-43.02
-26.42
-4.94
20.58
48.50
76.75
103.00
125.01
140.81
148.94
148.84
141.02
127.07
109.37
90.58
72.99
58.10
46.40
37.43
30.06
22.76
13.88
2.09
-13.23
-31.74
-52.11
-72.35
-90.50
-105.15
-115.71
-122.07
-123.93
-120.20
-109.27
-89.88
-62.43
-29.97
1.97
26.89
39.59
38.04
23.94
1.67
-23.89
-49.21
-72.90
-95.05
-115.92
-135.07
-151.54
-164.77
-175.39
-185.15
-195.59
-206.63
-215.81
-219.03
-212.10
-192.63
-160.90
-119.71
-73.50
-27.39
13.50
44.82
63.97
71.32
70.88
69.44
74.19
89.68
115.68
147.18
176.54
196.66
203.27
195.48
174.72
143.06
102.14
53.38
-1.07
-57.63
-111.61
-158.70
-196.72
-226.56
-251.53
-275.48
-300.56
-325.95
-348.08
-362.50
-366.04
-358.14
-341.04
-318.20
-292.55
-265.27
-235.78
-202.39
-163.57
-118.90
-70.01
-21.39
19.56
43.80
43.64
16.45
-32.79
-92.20
-146.99
-185.23
-202.22
-201.08
-189.23
-173.32
-155.29
-132.02
-98.35
-51.32
7.03
69.51
126.09
166.94
185.13
178.49
149.88
106.63
58.80
16.58
-12.52
-25.36
-23.41
-11.16
6.10
23.99
39.58
50.91
56.41
54.79
45.83
31.06
13.85
-1.63
-12.46
-18.46
-22.30
-28.16
-39.38
-56.20
-75.14
-90.32
-96.01
-89.24
-71.07
-45.86
-19.10
4.88
24.38
40.32
54.99
70.79
89.35
111.48
137.36
166.45
197.08
226.10
249.12
261.53
260.14
244.48
217.27
183.54
148.92
117.97
92.99
73.95
59.36
47.42
37.04
28.26
22.08
19.59
21.08
25.65
31.31
35.88
37.99
37.39
34.67
30.49
24.80
17.03
6.78
-5.17
-16.51
-23.92
-24.50
-16.88
-1.95
17.54
38.01
56.21
69.98
78.78
83.75
87.51
93.64
105.56
125.25
152.13
182.72
211.65
233.53
245.20
246.83
241.59
233.70
226.07
218.64
208.48
191.43
164.14
125.35
75.98
18.49
-43.82
-106.76
-165.12
-212.86
-244.22
-255.55
-246.84
-221.93
-187.17
-149.18
-112.66
-79.64
-49.76
-21.29
7.97
40.19
77.51
122.02
175.20
236.94
304.53
372.37
432.46
476.33
497.34
492.69
464.07
416.70
357.19
291.34
222.73
152.52
80.62
7.14
-66.46
-137.19
-201.49
-256.52
-301.13
-335.87
-361.99
-380.04
-388.83
-385.95
-369.24
-338.70
-297.46
-251.11
-205.77
-165.73
-132.25
-103.79
-77.76
-52.46
-28.35
-8.07
4.64
6.69
-2.67
-21.05
-43.45
-63.90
-77.38
-81.34
-76.04
-63.96
-48.53
-32.79
-18.49
-5.65
7.42
23.61
45.96
76.34
114.15
155.80
195.31
226.12
243.20
244.64
231.88
208.72
179.79
149.27
120.29
94.94
74.48
59.38
49.25
42.84
38.24
33.62
27.88
21.04
13.90
7.36
1.89
-2.62
-6.43
-9.52
-11.45
-11.84
-10.90
-9.79
-10.19
-13.49
-20.05
-29.07
-39.08
-48.60
-56.71
-62.89
-66.66
-67.24
-63.61
-55.06
-41.77
-25.12
-7.40
8.81
21.54
30.12
35.36
39.12
43.40
49.25
56.14
62.05
64.44
61.64
53.84
43.33
33.65
28.12
28.34
33.49
40.81
47.01
50.01
49.90
48.93
50.26
56.33
67.60
82.30
97.23
109.07
115.59
116.16
111.54
103.17
92.53
80.85
69.13
58.29
49.19
42.54
38.59
37.02
36.83
36.62
35.04
31.38
25.85
19.40
13.17
7.86
3.45
-0.61
-4.97
-9.88
-15.25
-20.97
-27.25
-34.61
-43.58
-54.22
-65.91
-77.62
-88.27
-97.05
-103.31
-106.20
-104.63
-97.59
-84.88
-67.78
-49.00
-31.87
-19.18
-12.16
-10.14
-11.25
-13.35
-15.13
-16.30
-17.21
-17.96
-17.62
-14.16
-5.18
10.84
33.70
61.22
89.88
115.90
136.28
149.50
155.74
156.65
154.75
152.57
151.64
151.74
150.85
145.76
133.29
111.68
81.35
44.97
6.72
-28.83
-58.02
-78.92
-91.89
-99.25
-104.39
-110.26
-118.01
-126.53
-133.08
-134.81
-130.22
-120.01
-106.66
-93.24
-81.90
-73.08
-65.54
-57.31
-46.83
-33.85
-19.64
-6.54
2.97
7.17
5.66
-0.71
-10.35
-21.59
-33.08
-43.79
-52.72
-58.81
-60.97
-58.63
-52.16
-43.01
-33.33
-25.20
-19.77
-16.92
-15.54
-14.27
-12.37
-10.27
-9.19
-10.42
-14.31
-19.71
-24.19
-24.72
-18.38
-2.92
23.08
59.69
105.03
154.71
202.17
240.09
262.69
267.72
257.07
235.58
208.61
179.85
150.48
119.88
87.50
54.11
21.96
-6.40
-29.35
-47.04
-61.08
-73.46
-85.58
-97.68
-108.83
-117.42
-121.83
-120.84
-114.06
-102.28
-87.31
-71.53
-56.85
-43.84
-31.48
-18.12
-3.17
11.49
21.13
19.52
1.37
-35.20
-87.35
-147.88
-207.22
-255.98
-287.13
-297.24
-286.52
-257.96
-215.91
-164.87
-108.83
-51.35
3.95
53.01
91.57
116.21
125.36
119.86
102.79
78.57
52.06
27.89
10.06
1.55
4.00
17.28
39.23
65.91
92.28
113.17
124.51
124.38
113.70
96.35
78.34
66.02
64.00
73.26
90.70
110.27
125.18
130.42
124.20
108.05
85.56
60.94
37.64
17.80
2.47
-8.10
-14.18
-16.45
-16.21
-15.28
-15.65
-18.76
-25.09
-33.99
-44.01
-53.42
-60.55
-64.01
-62.78
-56.51
-45.85
-32.84
-20.70
-12.98
-12.18
-18.66
-30.35
-43.62
-54.65
-60.92
-61.74
-57.98
-51.31
-43.41
-35.68
-29.19
-24.72
-22.63
-22.57
-23.48
-23.89
-22.69
-19.84
-16.64
-15.12
-16.82
-21.74
-27.94
-32.36
-32.29
-26.49
-15.40
-0.63
15.64
30.75
41.56
44.91
39.13
25.93
11.26
3.81
11.29
36.25
74.01
114.05
144.47
157.07
150.28
128.58
99.25
68.78
40.75
16.07
-5.55
-24.19
-39.28
-50.07
-56.33
-58.69
-58.38
-56.49
-53.53
-49.42
-43.68
-35.71
-25.02
-11.31
5.36
24.27
43.62
60.46
71.23
72.88
64.06
45.80
21.26
-5.37
-30.08
-50.10
-64.14
-72.14
-74.84
-73.49
-69.66
-65.05
-61.16
-58.82
-57.89
-57.19
-54.93
-49.77
-41.91
-33.80
-29.62
-33.57
-47.32
-68.20
-89.26
-101.41
-96.89
-72.39
-30.39
21.79
74.62
119.48
150.96
167.69
171.98
168.40
162.27
157.92
157.45
160.23
163.44
163.51
157.76
145.42
127.55
106.01
82.40
57.52
31.56
4.99
-20.85
-43.73
-61.28
-72.08
-76.37
-75.90
-73.09
-69.95
-67.43
-65.44
-63.29
-60.12
-55.11
-47.48
-36.71
-22.89
-7.15
8.35
20.94
28.56
30.63
28.26
23.57
18.65
14.61
11.53
8.93
6.47
4.42
3.49
4.49
8.18
15.50
27.65
45.68
69.47
96.51
121.44
137.14
137.36
119.74
87.36
47.91
10.70
-16.65
-30.22
-29.73
-17.12
4.46
30.95
56.98
76.40
84.22
79.35
66.19
53.33
49.67
59.72
80.98
105.05
121.64
123.25
107.75
77.89
38.76
-5.02
-50.56
-96.41
-141.33
-183.34
-219.98
-249.23
-270.46
-284.63
-293.60
-299.01
-301.53
-301.07
-297.48
-291.18
-282.97
-273.38
-261.93
-247.21
-227.77
-203.18
-174.62
-144.54
-115.83
-90.87
-70.98
-56.34
-45.85
-37.26
-27.41
-13.07
7.73
34.61
64.51
92.81
115.07
128.65
133.03
128.98
117.35
98.61
73.39
43.83
14.48
-8.19
-17.62
-10.06
13.02
44.23
72.10
85.17
76.58
47.05
4.69
-38.34
-70.66
-85.70
-83.01
-66.62
-41.71
-11.74
22.40
61.01
103.21
145.33
181.15
203.87
208.71
194.70
164.90
125.20
82.27
41.78
7.17
-20.30
-40.88
-55.50
-65.11
-70.64
-73.24
-74.58
-76.71
-81.26
-88.36
-95.95
-100.22
-97.24
-84.97
-64.59
-40.22
-17.22
0.25
10.69
15.33
16.67
16.88
16.72
15.88
13.99
11.38
9.22
8.76
10.43
13.56
16.84
19.18
20.49
21.69
23.98
27.94
32.88
37.07
38.61
36.59
31.61
25.64
20.96
19.10
20.34
23.77
27.97
31.47
33.01
31.62
26.95
19.73
12.16
7.52
8.92
17.66
32.13
48.00
59.90
63.69
58.06
44.75
27.34
9.57
-5.81
-17.19
-23.59
-24.21
-18.59
-7.17
8.19
24.47
38.47
48.07
52.78
53.33
50.56
44.48
34.33
19.55
1.05
-18.36
-34.77
-45.05
-48.42
-46.71
-43.08
-40.03
-37.95
-35.24
-29.74
-20.43
-8.38
3.81
13.53
19.56
22.71
25.04
28.63
34.34
41.43
48.13
52.66
54.07
52.42
48.42
42.71
35.52
26.71
16.38
5.36
-4.50
-10.64
-10.62
-2.98
11.99
32.12
53.84
73.24
87.36
95.12
97.53
97.08
96.46
97.36
99.73
101.94
101.57
96.48
85.60
69.08
48.10
24.32
-0.39
-24.29
-45.82
-63.87
-77.91
-88.19
-95.53
-101.03
-105.50
-109.06
-111.17
-111.06
-108.28
-103.15
-96.75
-90.65
-86.42
-85.31
-88.09
-94.85
-104.92
-116.68
-127.81
-135.71
-138.35
-134.94
-126.12
-113.56
-99.08
-83.81
-67.92
-50.90
-32.36
-12.79
6.13
21.86
31.81
34.24
29.01
17.56
2.39
-13.83
-28.95
-41.60
-50.86
-55.81
-55.33
-48.52
-35.34
-17.01
4.25
25.96
46.26
64.39
80.70
96.28
112.29
129.37
147.25
164.45
178.39
185.87
183.85
170.54
146.15
113.15
75.63
38.22
4.87
-21.82
-40.74
-51.84
-55.63
-52.96
-44.93
-33.05
-19.34
-6.15
4.27
10.44
11.87
9.11
3.24
-4.65
-13.72
-23.26
-32.41
-40.06
-45.06
-46.91
-46.16
-44.35
-43.40
-44.73
-48.70
-54.62
-61.24
-67.45
-72.58
-76.32
-78.36
-78.25
-75.51
-70.06
-62.49
-53.96
-45.84
-39.06
-33.81
-29.74
-26.34
-23.56
-22.16
-23.50
-28.93
-38.90
-52.35
-66.68
-78.35
-83.97
-81.26
-69.65
-50.25
-25.65
0.59
24.63
43.26
55.18
61.82
67.28
76.70
93.84
118.91
147.88
173.92
190.24
192.72
181.26
158.93
130.15
98.79
67.46
37.73
10.92
-11.57
-28.57
-39.79
-46.23
-49.92
-52.88
-56.16
-59.33
-60.84
-58.93
-52.56
-41.84
-28.00
-12.85
1.74
14.24
23.64
29.48
31.76
30.83
27.21
21.32
13.34
3.23
-8.94
-22.61
-36.57
-49.16
-58.92
-65.08
-67.81
-67.92
-66.42
-63.86
-60.11
-54.50
-46.27
-35.19
-21.82
-7.42
6.66
19.64
31.71
43.74
56.48
69.71
81.99
91.11
95.22
93.73
87.63
79.06
70.38
63.50
59.53
59.00
62.04
68.58
78.08
89.49
101.22
111.56
119.11
123.32
124.52
123.77
122.46
121.90
123.04
126.32
131.65
138.44
145.82
152.53
156.98
157.27
151.45
137.96
116.18
86.60
50.62
9.90
-34.09
-80.28
-127.68
-174.80
-219.42
-258.69
-289.84
-310.95
-321.52
-322.44
-315.54
-302.80
-286.03
-267.05
-248.23
-232.94
-225.27
-228.88
-245.20
-271.94
-302.76
-328.70
-340.93
-333.72
-306.46
-263.57
-212.66
-161.66
-116.36
-79.17
-49.13
-23.07
2.98
32.35
66.55
104.63
143.25
177.36
201.68
212.26
207.86
190.60
165.67
140.53
123.35
120.93
136.39
167.52
206.59
242.22
263.26
262.78
240.39
201.39
153.48
102.99
52.88
3.59
-44.51
-88.78
-124.16
-144.94
-147.39
-131.39
-100.23
-59.28
-14.48
28.39
64.18
88.74
99.75
97.63
85.44
67.70
48.44
29.95
12.55
-4.37
-21.46
-39.36
-59.33
-83.62
-114.55
-152.36
-193.19
-229.04
-250.17
-249.15
-224.22
-180.04
-125.44
-69.68
-19.32
22.92
56.91
83.22
101.73
111.74
112.98
106.62
95.44
83.01
72.45
65.48
62.25
61.74
62.60
63.88
65.47
67.99
72.40
79.26
88.37
98.66
108.74
117.61
125.11
131.68
137.76
143.04
146.19
145.20
138.17
124.13
103.31
76.88
46.47
13.96
-18.57
-48.57
-73.13
-89.67
-96.68
-94.46
-84.99
-71.22
-56.02
-41.58
-29.21
-19.63
-13.15
-9.68
-8.54
-8.51
-8.28
-7.25
-6.10
-6.77
-11.80
-23.29
-42.00
-66.88
-95.22
-123.21
-146.55
-161.11
-163.57
-152.05
-126.75
-90.15
-46.78
-2.23
37.90
69.23
89.27
97.81
96.61
88.91
78.48
68.67
61.67
58.07
57.09
57.09
56.28
53.14
46.77
37.28
26.15
16.30
11.51
14.96
27.47
46.42
66.13
79.84
82.41
72.32
51.85
25.61
-1.71
-26.98
-48.90
-67.11
-80.96
-88.79
-88.35
-77.77
-56.79
-27.47
5.90
37.76
62.74
77.18
79.99
72.64
58.11
39.56
19.26
-1.59
-22.26
-41.73
-58.04
-68.50
-70.40
-62.10
-43.86
-18.27
10.08
35.73
53.63
60.54
55.70
40.90
19.62
-4.07
-26.65
-45.69
-59.87
-68.60
-71.79
-69.87
-64.00
-56.09
-48.50
-43.33
-41.58
-42.57
-44.13
-43.51
-38.71
-29.53
-17.84
-6.79
0.57
2.75
0.48
-3.67
-6.51
-5.57
0.06
9.57
20.95
31.68
39.32
42.01
38.98
30.99
20.45
11.06
6.65
9.76
20.46
36.15
52.47
65.02
70.89
69.49
62.33
52.04
41.26
31.85
24.67
19.75
16.66
14.85
13.80
13.10
12.51
12.02
11.83
12.23
13.25
14.53
15.31
14.82
12.72
9.14
4.56
-0.68
-6.64
-13.73
-22.17
-31.62
-41.15
-49.72
-56.81
-62.67
-67.90
-72.68
-76.24
-76.93
-73.08
-64.10
-51.11
-36.69
-23.91
-15.03
-10.67
-9.69
-9.89
-9.11
-6.30
-1.93
2.22
4.07
2.36
-2.56
-8.67
-13.15
-13.38
-7.89
3.34
18.98
36.70
53.58
66.77
74.21
75.49
72.37
68.36
67.39
72.10
82.46
95.63
107.12
112.66
109.71
98.08
79.36
55.93
30.05
3.59
-21.88
-44.83
-63.73
-77.24
-84.66
-86.15
-82.70
-75.57
-65.70
-53.14
-37.25
-17.41
5.91
30.56
52.97
69.19
76.26
73.09
60.40
40.02
14.08
-15.29
-45.76
-74.57
-98.72
-115.75
-124.71
-126.48
-123.22
-117.17
-109.53
-100.10
-87.90
-72.28
-53.81
-34.33
-16.31
-1.76
8.48
14.97
19.11
22.38
25.66
28.84
31.08
31.32
29.06
24.82
20.20
17.35
18.21
23.74
33.71
46.87
61.38
75.23
86.49
93.53
95.47
92.78
87.65
83.70
84.71
92.84
107.19
123.55
135.78
138.12
127.44
104.21
71.93
35.52
-0.37
-32.44
-58.86
-78.91
-92.52
-100.13
-102.71
-101.79
-99.23
-96.82
-95.62
-95.68
-96.16
-95.75
-93.29
-88.09
-80.04
-69.48
-57.14
-44.08
-31.86
-22.41
-17.55
-18.35
-24.56
-34.46
-45.52
-55.34
-62.42
-66.35
-67.44
-65.85
-61.23
-52.82
-40.10
-23.53
-4.84
13.38
28.51
38.84
44.17
45.64
45.11
44.23
43.70
43.03
40.92
36.16
28.56
19.42
11.24
6.85
8.26
15.89
28.50
43.48
57.56
67.49
70.76
66.31
55.26
41.19
29.49
25.78
33.64
52.79
78.69
103.94
120.99
124.89
114.93
94.36
68.88
44.34
25.00
12.71
7.08
6.26
7.79
9.34
8.92
4.84
-4.30
-19.43
-40.52
-66.12
-93.39
-118.73
-138.87
-151.71
-156.65
-154.11
-144.88
-129.65
-109.23
-85.20
-60.37
-38.49
-23.28
-17.09
-20.05
-30.17
-44.09
-58.17
-69.16
-74.47
-72.21
-61.34
-42.07
-16.10
13.36
42.20
66.43
83.32
92.05
93.66
90.34
84.23
76.66
67.82
57.29
44.97
31.88
20.29
12.91
11.66
16.77
26.76
39.27
52.13
63.91
73.67
80.39
82.79
79.72
71.00
57.74
41.63
23.82
4.03
-19.08
-46.46
-76.91
-106.49
-129.55
-140.97
-138.39
-123.16
-99.50
-72.82
-47.92
-27.89
-14.05
-6.37
-4.01
-5.92
-11.29
-19.77
-31.45
-46.58
-65.08
-85.93
-106.94
-124.72
-135.12
-133.98
-118.21
-87.04
-43.00
7.85
56.84
94.88
115.09
114.86
96.50
66.05
31.12
-1.40
-26.59
-41.93
-46.73
-41.67
-28.62
-10.40
9.44
27.20
40.07
46.90
48.42
46.71
44.24
42.66
42.18
41.54
38.81
32.55
22.84
11.51
1.49
-4.43
-4.73
0.30
8.96
18.81
27.52
33.37
35.58
34.49
31.70
29.77
31.59
39.07
52.06
68.01
82.67
91.73
92.54
84.98
71.11
53.97
36.30
19.76
5.03
-7.75
-18.40
-26.47
-31.52
-33.50
-32.93
-30.86
-28.42
-26.36
-24.79
-23.35
-21.42
-18.62
-14.78
-9.77
-3.31
4.89
14.68
24.84
32.94
36.24
32.59
21.55
4.70
-15.09
-34.77
-52.16
-66.35
-77.20
-84.19
-86.30
-82.27
-71.51
-54.81
-34.37
-13.18
6.04
21.63
34.02
44.72
55.24
66.01
75.83
82.35
83.32
77.87
67.45
56.47
50.19
52.73
65.26
85.66
109.75
133.26
153.35
163.38
158.85
137.76
102.27
58.91
16.37
-17.98
-40.69
-53.26
-61.06
-69.80
-83.19
-101.02
-119.33
-132.51
-135.99
-128.03
-110.36
-87.19
-62.83
-40.65
-22.43
-8.72
0.44
5.00
5.02
0.87
-6.59
-15.55
-23.90
-29.55
-30.98
-27.40
-18.95
-6.82
6.59
17.96
24.35
24.36
19.04
11.45
5.49
2.87
3.26
4.61
4.77
3.26
1.73
2.99
8.94
18.96
29.80
37.27
38.33
32.67
22.86
12.91
6.50
5.13
7.79
11.73
14.13
13.55
10.64
7.98
8.98
16.54
31.75
53.32
77.94
101.26
119.06
128.35
128.31
120.67
109.77
101.18
99.70
107.18
121.67
137.97
149.69
152.37
143.59
124.47
98.70
70.45
42.24
14.22
-14.68
-44.91
-74.98
-101.60
-120.88
-130.44
-130.67
-124.50
-115.78
-107.45
-100.61
-94.85
-89.52
-84.77
-81.85
-82.49
-87.83
-97.75
-111.11
-126.55
-143.23
-160.94
-179.42
-197.88
-214.99
-229.32
-239.88
-246.31
-248.53
-246.11
-238.09
-223.16
-200.54
-170.83
-136.30
-100.53
-67.47
-40.32
-20.65
-8.19
-1.15
2.88
6.02
9.32
12.78
15.86
18.26
20.53
23.91
29.82
39.02
51.30
65.81
81.91
99.83
120.65
145.28
173.16
201.67
226.51
243.26
248.98
243.05
226.89
202.67
172.03
135.47
92.87
44.68
-6.93
-57.74
-102.15
-134.75
-152.24
-154.58
-145.12
-129.42
-113.33
-101.29
-95.72
-97.68
-107.79
-126.56
-153.17
-184.09
-212.35
-228.92
-225.86
-199.66
-152.62
-91.53
-24.51
41.94
103.65
157.62
200.02
225.52
228.95
208.07
165.67
109.55
50.11
-3.09
-43.81
-69.81
-81.96
-82.62
-74.41
-59.80
-41.30
-21.49
-2.81
12.95
24.91
32.87
36.91
36.74
31.66
21.41
7.19
-7.49
-17.23
-16.37
-1.27
28.03
67.38
109.66
146.71
171.10
177.49
163.49
130.22
82.56
28.65
-21.76
-59.53
-78.43
-76.54
-56.31
-23.36
15.20
52.19
81.52
98.99
102.93
94.71
78.50
60.24
45.82
39.05
40.42
47.00
53.66
55.09
47.91
31.83
9.67
-13.96
-34.45
-48.66
-55.43
-55.15
-49.13
-39.10
-27.33
-16.82
-11.13
-13.47
-25.48
-46.36
-72.95
-100.90
-125.96
-144.97
-156.02
-158.01
-150.48
-133.74
-109.60
-81.63
-54.61
-32.83
-17.98
-8.12
1.89
17.95
43.78
78.68
117.18
150.61
170.01
168.93
145.30
101.83
45.21
-15.42
-70.43
-111.73
-134.55
-138.35
-126.13
-102.62
-71.86
-36.19
2.91
43.00
79.02
103.56
109.18
91.84
53.52
2.68
-48.16
-86.32
-102.97
-95.52
-67.53
-26.51
19.45
64.90
108.58
152.64
199.78
249.89
298.29
336.92
358.16
358.89
342.63
317.96
294.24
276.97
265.47
253.89
235.04
204.50
162.68
114.16
64.83
18.78
-23.28
-63.52
-104.80
-148.51
-193.79
-238.43
-280.49
-319.14
-354.05
-383.96
-405.51
-413.56
-402.99
-371.24
-320.08
-255.65
-186.72
-122.21
-68.97
-30.75
-8.35
-0.51
-4.56
-16.81
-32.62
-46.65
-53.50
-48.92
-31.47
-3.40
29.70
61.10
85.86
102.79
114.18
123.50
132.50
139.73
141.39
134.08
117.54
95.38
73.42
56.66
46.85
42.14
38.86
33.98
26.86
19.21
13.74
12.58
16.28
23.83
33.47
43.72
53.83
63.64
73.06
81.64
88.60
93.28
95.64
96.33
96.25
95.76
94.15
89.71
80.28
63.91
39.28
5.92
-35.74
-84.04
-135.63
-185.27
-226.32
-252.06
-257.59
-241.62
-207.53
-163.18
-119.13
-85.89
-70.65
-74.77
-93.07
-115.50
-130.82
-130.62
-112.27
-79.22
-38.76
1.36
35.61
61.70
79.51
89.82
93.26
90.56
83.50
75.06
68.18
63.64
58.83
48.62
28.57
-1.48
-35.72
-63.89
-75.33
-63.43
-28.13
24.43
84.39
141.38
186.47
213.22
217.89
199.44
159.58
102.70
35.17
-35.57
-101.78
-155.92
-191.23
-202.76
-189.15
-153.60
-103.55
-48.52
3.02
46.15
80.15
107.07
129.51
148.42
162.57
169.24
165.64
150.24
123.49
87.92
48.09
10.09
-19.31
-34.19
-31.54
-12.88
15.83
46.34
71.85
90.48
106.29
126.86
158.56
201.89
249.74
289.85
310.02
303.52
271.57
222.10
165.37
109.76
59.26
13.84
-28.22
-68.27
-106.59
-143.17
-178.85
-215.21
-253.04
-290.28
-321.05
-337.10
-330.94
-299.62
-246.71
-181.37
-114.92
-56.67
-11.44
20.65
41.87
54.32
58.45
53.42
38.57
14.68
-15.82
-49.67
-83.65
-114.74
-139.83
-155.18
-156.61
-140.66
-106.01
-54.26
10.72
84.30
162.24
240.71
315.20
379.68
427.19
451.89
451.62
429.39
392.52
349.82
308.46
271.93
239.94
210.31
180.79
150.48
119.74
89.44
59.94
30.91
1.55
-28.83
-60.53
-93.39
-127.20
-162.15
-198.91
-238.15
-279.39
-320.00
-354.78
-376.65
-378.57
-355.78
-307.70
-238.44
-155.74
-68.62
15.00
89.92
153.79
205.98
246.22
273.78
287.68
287.73
275.56
254.73
229.93
205.39
183.53
164.55
146.97
128.86
108.89
86.68
62.59
37.16
10.62
-17.04
-45.96
-76.11
-107.27
-139.09
-171.26
-203.65
-236.22
-268.93
-301.57
-333.80
-365.20
-395.67
-425.56
-455.87
-488.02
-523.40
-562.69
-604.93
-646.89
-683.00
-706.42
-710.88
-692.77
-652.57
-594.71
-525.99
-453.22
-381.25
-312.18
-246.19
-182.99
-123.03
-67.80
-19.11
22.02
56.13
85.21
112.00
139.25
169.09
202.72
240.03
279.19
316.55
346.91
364.89
366.71
351.94
324.12
289.95
257.06
231.51
216.04
209.69
208.68
208.33
204.20
193.03
173.04
143.71
105.39
58.78
4.68
-55.95
-120.89
-186.39
-247.00
-296.60
-330.21
-345.86
-345.21
-332.51
-312.78
-288.95
-262.16
-232.26
-199.22
-164.08
-128.54
-93.71
-59.06
-23.64
14.52
53.44
87.64
109.97
115.06
102.75
79.06
54.14
36.51
33.94
45.81
66.28
87.84
105.17
116.98
124.97
130.93
131.33
124.82
105.21
68.18
14.56
-48.24
-107.99
-151.72
-170.69
-166.86
-142.17
-107.00
-71.46
-41.22
-15.80
9.91
41.40
101.63
156.99
202.28
227.05
225.05
196.90
149.49
92.44
34.31
-19.41
-69.26
-108.89
-135.07
-143.95
-133.21
-103.98
-61.25
-12.26
36.25
77.46
112.87
142.07
164.21
176.92
176.94
161.97
132.66
93.95
52.89
21.35
6.78
10.55
27.02
45.98
57.46
56.66
46.21
33.66
29.39
39.05
62.33
94.22
128.45
160.83
190.20
217.10
240.87
259.11
267.22
260.82
238.14
200.92
153.72
101.55
48.18
-4.29
-54.09
-98.03
-131.18
-148.52
-147.80
-131.51
-106.50
-81.03
-60.91
-47.19
-36.46
-23.43
-3.78
24.28
59.86
100.28
141.66
179.12
206.94
219.52
212.73
185.24
138.87
78.36
10.78
-55.02
-109.27
-142.93
-149.80
-128.30
-82.09
-19.04
50.98
118.07
173.69
211.09
225.97
217.39
188.61
146.86
101.18
59.33
25.05
-2.54
-27.01
-51.75
-78.41
-107.04
-137.41
-169.85
-204.50
-239.68
-270.83
-291.33
-294.97
-279.03
-245.79
-201.59
-154.09
-109.16
-69.31
-34.07
-1.98
27.52
53.08
71.97
81.48
80.37
70.06
54.57
39.77
31.54
33.51
45.66
64.32
83.48
96.88
99.91
90.70
70.42
42.82
13.80
-9.30
-18.75
-8.33
24.45
76.40
138.54
198.19
242.74
263.49
257.74
228.57
182.86
128.87
74.41
25.92
-12.00
-36.89
-48.75
-49.96
-44.48
-36.47
-28.98
-23.42
-20.26
-20.03
-23.98
-33.51
-49.07
-69.21
-90.83
-110.41
-125.51
-135.64
-141.92
-146.13
-149.43
-151.90
-152.87
-151.75
-148.64
-144.25
-139.33
-133.82
-126.61
-115.99
-100.78
-81.43
-60.37
-41.50
-28.60
-23.56
-24.98
-28.19
-26.54
-13.76
13.60
54.54
103.54
151.91
190.13
210.33
208.31
184.64
144.77
98.11
55.86
28.18
21.14
34.30
60.35
87.25
102.81
99.76
79.17
50.39
26.64
18.75
29.86
54.20
80.70
98.99
104.36
98.95
88.61
77.86
66.28
48.78
19.45
-23.67
-76.07
-128.18
-169.72
-194.37
-201.98
-197.48
-187.32
-175.70
-162.79
-145.48
-119.90
-84.47
-41.56
2.51
39.61
62.41
66.86
53.63
27.98
-1.52
-25.14
-34.59
-25.20
2.69
43.47
87.64
124.52
145.56
147.17
132.01
107.78
84.04
68.55
64.49
70.05
79.94
88.13
90.11
83.59
68.13
44.43
14.31
-18.91
-50.31
-74.26
-86.34
-85.20
-73.17
-54.89
-34.86
-15.23
4.96
28.72
59.14
97.38
141.74
187.60
228.32
256.49
265.68
252.20
216.55
163.63
101.30
37.37
-23.33
-80.04
-134.55
-187.97
-237.77
-277.18
-297.62
-292.63
-261.04
-207.60
-140.97
-70.49
-3.88
53.36
96.97
123.08
128.68
113.22
80.41
38.21
-3.54
-37.01
-59.53
-73.95
-85.87
-99.76
-115.71
-129.31
-134.35
-126.51
-105.74
-76.05
-43.40
-12.97
12.70
34.08
53.63
74.08
96.58
119.57
138.63
148.13
143.98
126.51
101.43
77.94
64.45
64.42
74.77
88.08
97.21
99.38
97.10
95.52
98.29
104.74
109.93
107.35
92.45
64.92
28.85
-9.15
-42.64
-67.80
-84.67
-96.33
-106.68
-117.88
-129.07
-137.23
-139.90
-138.01
-136.57
-142.49
-160.26
-188.22
-217.94
-237.46
-236.79
-212.40
-168.49
-114.37
-59.96
-11.98
27.14
57.75
80.64
95.48
101.06
96.71
83.81
66.03
48.13
33.80
23.98
16.37
6.54
-9.77
-34.38
-65.36
-97.36
-123.21
-136.26
-132.21
-110.18
-72.86
-25.85
23.46
67.51
100.32
119.19
125.57
124.59
123.13
127.01
138.62
156.02
174.03
186.66
189.69
182.16
166.24
145.88
124.95
106.01
89.96
76.63
65.66
57.02
51.01
47.63
45.88
43.72
38.46
27.74
10.49
-12.80
-40.86
-72.82
-108.89
-149.63
-194.18
-238.63
-276.10
-299.07
-302.83
-288.21
-261.68
-232.56
-208.85
-194.02
-186.40
-181.14
-173.39
-160.57
-142.86
-122.11
-100.45
-79.45
-60.22
-43.79
-31.26
-23.50
-20.70
-21.94
-25.19
-27.92
-27.83
-23.72
-15.90
-5.94
4.27
13.67
22.97
34.79
52.68
79.42
115.29
157.31
199.69
235.64
259.77
270.01
268.35
260.01
251.49
248.17
252.44
263.01
275.47
283.93
282.91
268.95
241.43
202.37
155.60
105.58
56.33
10.90
-28.74
-61.22
-85.75
-102.27
-111.96
-117.58
-123.04
-132.17
-147.14
-167.66
-191.21
-214.46
-234.67
-250.27
-260.40
-264.19
-260.58
-249.12
-231.04
-209.45
-188.19
-169.81
-153.95
-137.50
-116.37
-87.91
-52.32
-12.37
28.04
65.50
97.61
122.61
138.75
144.33
138.33
121.30
95.66
65.37
34.84
8.04
-12.29
-25.10
-31.23
-33.04
-33.51
-34.72
-36.36
-35.35
-26.96
-7.17
24.96
66.35
110.81
151.26
182.12
200.34
205.38
198.35
181.45
157.90
132.06
109.05
93.46
87.59
90.26
97.01
101.83
99.65
88.36
69.42
46.96
25.91
10.02
0.79
-2.79
-3.37
-3.98
-6.93
-13.13
-22.11
-32.62
-43.45
-54.04
-64.61
-75.83
-88.20
-101.57
-115.05
-127.43
-137.65
-145.31
-150.78
-154.96
-158.88
-163.26
-168.38
-173.81
-178.39
-180.34
-177.65
-168.87
-153.77
-133.52
-110.22
-85.89
-61.49
-36.61
-9.92
19.84
52.79
87.19
119.35
144.18
156.49
152.93
133.80
103.93
72.00
47.85
38.82
46.51
65.90
87.34
100.56
98.96
82.07
55.37
27.42
5.86
-5.87
-10.03
-13.56
-25.09
-51.26
-93.41
-146.30
-199.52
-240.83
-260.34
-253.48
-221.85
-172.06
-113.28
-54.86
-4.21
34.41
60.50
76.99
88.76
100.47
114.26
128.86
140.69
146.36
144.89
138.56
131.58
127.51
127.73
131.34
136.65
142.62
149.20
156.13
161.76
162.62
154.50
134.56
102.92
63.09
20.78
-17.83
-47.54
-64.90
-68.56
-59.72
-42.26
-22.28
-6.50
0.24
-2.61
-10.38
-14.80
-7.67
14.98
50.66
90.97
125.03
143.64
142.37
122.24
88.13
46.23
1.84
-41.19
-79.92
-111.25
-131.79
-138.94
-132.94
-118.27
-102.81
-94.79
-98.51
-111.45
-124.75
-127.27
-111.35
-77.10
-32.86
8.60
35.78
42.99
31.63
8.29
-18.56
-41.46
-55.28
-57.62
-48.75
-31.73
-12.09
3.50
9.72
5.06
-6.80
-18.03
-19.98
-6.95
21.23
59.26
98.64
130.82
149.69
152.24
138.12
108.93
68.09
20.83
-26.02
-64.90
-89.19
-94.88
-81.70
-53.33
-16.83
18.61
43.59
50.89
38.03
8.74
-27.60
-59.04
-75.68
-73.45
-55.60
-30.77
-8.98
2.19
-0.62
-17.18
-45.29
-81.79
-122.36
-160.87
-189.43
-200.09
-187.68
-152.10
-98.48
-35.10
29.59
89.21
139.87
178.95
203.78
211.73
201.46
174.74
137.17
96.60
60.12
31.27
9.41
-8.65
-25.70
-41.90
-54.99
-62.73
-65.67
-68.03
-75.66
-92.20
-115.91
-139.39
-152.59
-147.56
-121.98
-79.71
-28.42
23.79
70.78
108.73
135.24
148.60
148.01
134.58
111.82
85.36
61.11
43.23
32.93
28.64
27.40
26.52
24.73
22.26
20.21
19.59
20.82
23.78
28.23
34.24
41.93
50.98
60.11
67.38
71.11
71.01
68.70
67.02
68.34
72.91
78.30
80.31
75.15
61.39
40.78
17.55
-3.35
-18.11
-25.08
-24.86
-19.55
-11.86
-4.38
0.83
2.36
-0.72
-9.15
-23.44
-43.62
-68.53
-95.30
-119.62
-136.97
-144.60
-143.02
-136.13
-129.46
-127.38
-130.62
-135.75
-136.94
-128.97
-110.12
-83.04
-53.39
-27.13
-7.84
4.45
12.70
20.91
32.01
46.35
61.57
73.72
79.00
75.41
63.74
47.45
31.49
20.67
18.08
24.21
37.03
52.83
67.35
76.95
79.46
74.84
65.38
55.43
50.54
55.60
72.59
98.85
127.06
147.76
153.50
142.69
120.82
98.46
86.45
91.17
111.98
142.05
171.71
192.33
198.87
190.11
167.55
133.80
91.77
44.64
-4.01
-50.36
-91.19
-124.83
-151.98
-175.73
-200.48
-229.88
-264.59
-301.00
-331.86
-348.86
-345.86
-321.36
-278.69
-224.21
-164.71
-105.42
-49.65
0.42
42.52
73.89
91.83
94.75
83.38
61.21
34.09
8.86
-8.70
-15.88
-13.89
-6.97
0.10
4.80
8.51
16.06
33.27
63.99
107.92
160.28
213.17
257.65
286.06
293.68
279.71
247.15
201.74
149.92
96.67
44.31
-7.25
-58.75
-109.90
-158.52
-200.90
-232.88
-250.95
-253.00
-238.65
-209.54
-169.60
-124.89
-82.54
-49.09
-28.37
-20.22
-20.37
-22.12
-19.15
-8.45
7.85
23.22
29.84
22.81
3.54
-20.28
-37.92
-40.85
-26.46
1.32
34.83
66.86
93.48
114.08
129.28
138.67
140.15
131.58
113.00
87.59
60.49
36.12
15.60
-3.89
-27.20
-57.89
-95.25
-133.56
-164.00
-178.53
-173.73
-152.36
-122.00
-91.49
-67.37
-51.99
-44.08
-40.69
-39.10
-37.65
-35.46
-31.80
-25.94
-17.69
-7.98
1.07
6.83
7.30
2.00
-7.77
-19.36
-29.69
-36.19
-37.50
-33.75
-26.37
-17.29
-8.01
1.06
10.42
20.60
31.12
40.06
44.96
44.50
40.11
36.28
39.08
53.31
79.83
114.39
148.79
173.69
182.03
171.24
143.68
105.30
63.43
24.58
-6.97
-29.55
-43.68
-51.16
-54.19
-54.74
-54.23
-53.54
-53.12
-53.22
-53.96
-55.48
-57.81
-60.85
-64.43
-68.58
-73.76
-80.94
-91.02
-103.82
-117.44
-128.70
-134.70
-134.61
-130.53
-126.40
-125.62
-128.71
-132.60
-132.17
-123.17
-104.60
-79.21
-51.85
-27.03
-7.03
8.26
20.28
30.40
39.23
46.86
53.48
59.73
66.48
74.20
82.56
90.33
95.91
97.98
96.13
91.03
84.20
77.54
72.80
70.97
71.82
73.89
74.94
72.81
66.48
56.86
46.15
36.51
28.60
21.30
12.59
0.94
-13.62
-29.38
-43.77
-54.03
-57.48
-51.44
-33.39
-1.95
41.65
92.70
143.69
186.52
215.18
227.30
223.73
206.95
179.22
141.98
96.49
44.74
-10.68
-67.26
-122.86
-175.44
-222.30
-259.56
-283.08
-290.34
-282.18
-262.87
-238.33
-213.17
-188.59
-162.22
-130.36
-91.09
-46.43
-2.19
34.33
57.46
65.43
60.44
47.03
29.79
11.77
-5.37
-20.37
-31.15
-35.06
-30.66
-19.58
-6.92
0.95
-0.02
-8.70
-18.64
-20.82
-8.10
21.26
62.85
108.17
148.45
177.68
193.86
198.15
193.14
181.05
162.99
139.28
110.40
77.96
44.86
14.75
-9.21
-25.46
-34.40
-38.00
-38.74
-38.49
-37.55
-34.42
-26.42
-11.03
12.30
41.01
69.74
92.31
104.07
103.87
93.97
77.89
57.88
33.62
3.46
-32.79
-71.92
-108.17
-136.44
-155.88
-170.79
-188.01
-212.09
-241.44
-268.10
-281.51
-273.59
-242.55
-193.38
-135.40
-78.83
-32.13
-0.91
12.46
9.19
-5.60
-23.15
-33.13
-27.02
-1.11
42.04
94.96
148.68
195.74
231.96
255.97
267.92
268.53
259.35
243.26
224.27
206.04
189.82
173.67
154.10
129.47
102.73
81.20
72.98
82.08
105.47
134.24
158.36
171.98
175.72
174.81
174.63
176.62
177.38
171.02
152.87
122.05
81.43
35.66
-11.24
-56.94
-100.33
-140.17
-174.12
-199.03
-212.04
-212.11
-201.03
-183.30
-165.07
-152.49
-150.13
-159.93
-180.93
-209.50
-240.20
-266.82
-283.63
-286.65
-274.56
-248.93
-213.69
-173.73
-133.48
-95.82
-61.73
-30.86
-2.50
23.54
46.58
65.54
79.60
88.61
92.95
93.15
89.82
83.94
77.18
71.99
71.23
77.26
91.11
111.97
137.30
163.39
186.41
203.33
212.61
214.40
210.18
201.89
190.91
177.35
160.12
137.68
109.01
74.35
34.95
-7.93
-53.93
-103.68
-157.50
-213.71
-267.46
-311.43
-337.96
-341.90
-322.50
-283.16
-230.04
-170.08
-109.76
-54.91
-10.57
19.51
33.87
34.07
24.25
8.70
-10.58
-34.94
-67.66
-110.71
-161.81
-213.69
-255.94
-278.08
-274.26
-245.10
-196.76
-137.88
-76.32
-17.28
36.98
86.12
131.35
172.47
207.64
234.60
252.54
263.14
269.40
273.83
277.16
279.88
280.39
276.29
266.26
251.53
236.09
224.42
219.37
221.25
230.02
242.38
252.69
255.28
246.69
227.72
201.29
170.68
122.60
53.03
-30.86
-113.29
-180.40
-228.04
-259.14
-279.65
-294.24
-302.26
-295.90
-268.54
-219.46
-154.90
-85.92
-21.42
30.31
59.90
64.31
50.74
30.40
12.53
6.70
9.72
17.83
28.23
38.98
45.24
44.31
33.42
11.00
-21.44
-59.80
-97.12
-127.62
-148.59
-159.67
-160.69
-151.83
-133.21
-105.43
-71.27
-34.82
-1.84
22.22
34.85
37.84
35.57
32.79
32.46
34.36
36.70
37.15
34.65
30.47
27.84
30.04
38.76
53.37
70.89
87.44
99.08
102.77
97.06
82.54
61.74
38.80
18.73
6.00
3.13
9.46
21.06
31.98
36.59
31.68
17.61
-2.12
-22.46
-38.95
-49.25
-53.43
-53.17
-50.57
-47.13
-43.58
-40.41
-38.45
-39.03
-43.54
-52.74
-66.27
-82.72
-99.93
-115.41
-126.65
-131.55
-128.90
-119.10
-104.52
-89.12
-77.15
-71.55
-72.78
-78.84
-86.42
-92.43
-95.01
-93.45
-87.53
-76.75
-60.36
-38.19
-11.46
16.90
43.08
63.61
76.86
83.47
85.92
87.21
89.49
93.23
97.35
100.15
100.62
99.30
98.26
100.16
106.98
118.98
134.40
149.90
161.49
165.62
160.12
144.98
122.80
98.73
79.48
71.58
78.97
101.21
132.96
165.35
188.82
196.12
184.45
155.76
115.47
70.23
26.07
-12.80
-44.09
-67.21
-82.67
-91.96
-97.51
-102.31
-109.44
-121.50
-140.13
-165.54
-196.19
-228.52
-257.35
-277.06
-283.62
-276.30
-258.40
-236.08
-215.81
-201.83
-194.79
-192.38
-191.09
-188.10
-181.95
-172.12
-157.99
-138.46
-112.44
-80.06
-43.37
-6.06
27.79
54.96
74.03
85.32
90.13
89.88
85.55
77.72
67.11
54.98
43.23
34.01
29.18
29.91
36.54
48.64
65.14
84.34
103.97
121.48
134.72
142.71
146.14
147.17
148.46
151.83
157.36
163.35
167.11
166.24
159.60
147.57
131.66
113.83
95.93
79.31
64.82
52.77
42.87
34.14
25.03
13.83
-0.69
-18.85
-39.98
-62.72
-85.28
-105.56
-121.20
-129.86
-130.05
-122.12
-108.86
-95.03
-85.59
-83.61
-88.92
-98.35
-107.47
-112.78
-113.12
-109.60
-104.41
-99.37
-95.28
-92.21
-90.22
-89.84
-91.87
-96.61
-103.24
-109.67
-113.33
-112.16
-105.63
-94.89
-82.21
-69.80
-58.81
-48.87
-38.59
-26.46
-11.73
5.27
23.43
41.46
58.51
74.31
89.08
103.25
117.32
131.58
146.09
160.43
173.54
183.68
188.82
187.16
177.73
160.77
137.61
110.26
80.90
51.48
23.57
-1.58
-22.88
-39.43
-50.60
-56.36
-57.59
-56.03
-53.97
-53.66
-56.87
-64.58
-76.62
-91.31
-105.28
-113.86
-112.57
-99.05
-74.64
-44.60
-16.40
3.15
10.54
6.49
-4.98
-18.99
-31.84
-41.88
-48.88
-52.82
-53.03
-48.45
-38.52
-24.02
-7.21
8.90
21.75
30.22
34.88
37.32
38.97
40.22
40.32
38.24
34.01
29.45
27.62
31.41
41.97
58.19
77.39
96.77
114.51
129.86
142.49
151.68
156.42
156.12
151.48
144.66
138.31
134.05
131.45
128.15
121.16
108.64
90.83
70.01
49.42
31.90
18.90
10.25
4.68
0.62
-3.17
-7.37
-12.38
-18.74
-27.21
-38.50
-52.70
-69.00
-85.77
-101.20
-113.77
-122.62
-127.47
-128.49
-126.31
-122.20
-118.11
-116.26
-118.36
-124.75
-134.07
-143.80
-151.21
-154.34
-152.33
-145.04
-132.57
-114.98
-92.62
-66.69
-39.38
-13.50
8.47
25.24
37.26
46.35
54.91
64.79
76.37
88.32
98.10
103.19
102.62
98.10
94.04
96.67
112.18
144.89
195.65
261.04
333.62
403.27
459.51
494.19
503.75
490.01
459.21
419.43
377.69
337.94
300.86
265.18
229.46
193.35
157.56
122.91
89.45
56.04
20.89
-17.45
-59.32
-103.59
-147.98
-190.19
-228.54
-262.75
-293.86
-323.66
-354.04
-386.64
-422.79
-463.47
-508.59
-555.95
-600.32
-633.82
-647.74
-635.66
-596.21
-534.09
-458.69
-380.78
-308.94
-247.50
-196.47
-153.20
-114.54
-78.21
-43.14
-9.07
23.92
55.49
84.89
110.84
131.87
146.83
155.75
160.16
162.83
166.77
174.08
185.22
199.02
213.29
225.88
235.49
241.84
245.38
246.70
245.99
242.73
235.69
223.17
203.50
175.94
141.67
104.51
70.74
47.53
40.46
51.14
76.35
109.13
141.51
167.21
183.08
188.81
185.39
173.57
153.33
124.38
87.16
43.30
-4.56
-53.49
-101.03
-145.46
-185.69
-220.92
-250.67
-274.67
-293.05
-306.47
-316.14
-323.41
-329.18
-333.09
-333.23
-326.85
-311.94
-289.00
-261.92
-237.19
-221.51
-218.96
-229.16
-247.23
-265.73
-277.25
-276.62
-261.82
-233.69
-194.91
-149.03
-99.81
-50.78
-5.00
35.17
68.16
93.30
110.83
121.60
126.71
127.04
123.13
115.53
105.53
95.62
89.45
90.83
102.44
124.76
155.74
191.32
226.37
255.88
275.87
284.22
281.22
269.83
255.16
242.99
237.64
240.13
247.63
254.49
254.73
244.43
223.05
193.18
159.07
124.74
92.77
63.91
37.59
12.81
-11.17
-34.57
-57.25
-79.00
-99.73
-119.32
-137.35
-153.36
-167.29
-180.19
-193.97
-210.39
-229.52
-248.86
-263.99
-270.65
-266.99
-254.69
-238.02
-221.45
-207.42
-195.59
-183.92
-170.49
-154.85
-137.78
-120.21
-102.19
-82.94
-61.84
-39.61
-18.52
-1.53
9.14
13.28
12.95
11.54
12.09
15.83
21.42
25.68
25.30
18.96
8.41
-1.88
-6.50
-1.25
15.34
41.82
74.65
109.40
141.82
168.49
187.24
197.59
200.89
199.95
197.71
195.78
193.43
188.00
176.57
157.98
133.98
108.61
86.43
70.42
60.75
55.10
50.07
42.92
32.68
20.31
7.93
-2.42
-9.81
-14.81
-19.39
-26.50
-39.35
-60.38
-90.02
-125.58
-160.92
-187.57
-197.34
-185.45
-152.84
-106.12
-55.08
-8.96
26.74
51.14
66.55
75.87
80.65
80.73
75.31
64.41
49.41
32.49
15.52
-0.56
-15.59
-29.44
-41.12
-48.79
-50.63
-46.15
-37.09
-27.16
-20.88
-21.62
-29.99
-43.50
-57.55
-67.44
-70.34
-66.27
-57.78
-48.61
-42.12
-40.09
-42.17
-46.03
-47.79
-42.90
-27.13
2.05
44.30
95.92
150.59
201.33
242.96
273.68
295.04
310.24
321.67
329.24
330.37
321.59
300.83
268.87
229.34
187.06
146.11
108.60
74.91
44.75
18.13
-4.47
-22.70
-36.89
-48.05
-57.36
-65.43
-72.28
-77.87
-82.84
-88.61
-96.84
-108.48
-123.18
-139.45
-155.43
-169.59
-180.84
-188.09
-189.83
-184.34
-170.65
-149.54
-123.77
-97.32
-73.99
-56.09
-43.92
-36.19
-30.97
-26.46
-21.33
-14.67
-5.67
6.65
23.43
45.62
73.35
105.30
138.42
168.38
190.68
202.16
201.98
191.80
174.81
154.48
133.59
114.18
98.06
87.32
84.05
89.33
101.99
118.25
132.66
139.83
136.20
120.76
94.59
59.81
18.57
-27.08
-74.69
-120.89
-161.47
-192.26
-210.46
-215.54
-209.22
-194.60
-174.88
-152.57
-129.30
-105.99
-83.18
-60.97
-39.19
-17.61
3.45
22.73
38.15
47.64
50.15
46.33
38.28
28.74
20.13
14.21
12.28
15.56
25.10
41.11
61.91
83.63
100.77
107.97
101.88
82.53
53.19
19.01
-14.90
-45.20
-70.88
-92.53
-110.98
-126.07
-136.33
-139.91
-135.74
-124.41
-108.11
-89.79
-72.52
-59.16
-52.19
-53.27
-62.12
-75.39
-86.42
-86.79
-69.48
-32.28
20.51
79.15
132.03
169.96
188.97
190.46
178.97
159.19
133.97
104.24
70.41
34.09
-1.31
-31.38
-52.54
-63.68
-66.64
-65.27
-63.89
-65.98
-73.51
-86.69
-104.17
-123.27
-140.63
-153.28
-160.04
-162.48
-164.49
-170.41
-182.54
-199.51
-216.54
-227.66
-228.37
-217.43
-196.66
-169.27
-137.92
-103.89
-67.68
-30.27
5.96
37.56
61.34
75.88
82.19
83.01
81.28
78.53
74.50
68.02
58.65
48.06
40.03
39.09
48.50
68.81
97.47
129.68
159.61
181.73
191.71
187.23
168.78
140.14
107.94
80.13
63.35
60.43
69.30
83.83
96.56
101.70
97.09
84.29
67.03
49.15
32.97
19.04
6.82
-4.25
-14.15
-22.36
-28.52
-32.94
-36.52
-40.22
-44.75
-50.71
-58.91
-70.40
-85.65
-103.48
-120.60
-132.51
-135.71
-129.95
-118.96
-108.86
-105.06
-109.38
-119.08
-128.47
-131.99
-126.85
-113.77
-95.74
-75.87
-55.81
-35.74
-15.40
4.83
23.50
38.70
49.41
56.30
61.60
67.79
76.05
85.51
93.75
98.29
98.11
94.07
88.19
82.55
78.54
76.90
78.28
83.47
93.07
106.69
122.50
137.58
149.13
155.79
158.24
158.54
158.57
158.71
157.36
151.89
140.16
121.84
98.63
73.43
49.07
27.14
7.82
-9.64
-25.99
-41.35
-55.21
-67.09
-77.14
-86.32
-96.17
-108.16
-123.00
-139.97
-156.57
-168.84
-172.43
-164.30
-144.48
-116.80
-87.98
-65.13
-53.00
-52.09
-58.91
-68.02
-74.58
-76.24
-73.25
-67.28
-59.88
-51.62
-42.27
-31.61
-20.17
-9.25
-0.24
6.28
11.01
15.59
21.47
28.75
35.77
39.73
38.29
31.15
20.75
11.46
7.64
11.60
22.71
37.71
52.34
63.01
67.86
66.84
61.27
53.36
45.93
42.11
44.71
55.22
72.90
94.57
115.50
130.97
137.88
135.52
125.22
109.24
89.71
68.14
45.69
23.68
3.91
-11.62
-21.44
-25.32
-24.51
-21.31
-18.44
-18.34
-22.87
-33.16
-49.50
-71.13
-96.01
-121.09
-143.03
-159.40
-169.42
-173.97
-174.59
-172.24
-166.57
-156.38
-140.80
-120.49
-97.68
-75.15
-54.59
-35.69
-16.54
4.80
28.66
52.98
74.09
88.40
94.21
92.37
85.62
77.02
68.21
58.84
47.39
32.93
16.77
2.79
-4.03
0.02
15.27
38.16
62.63
82.49
93.46
93.88
84.19
66.29
43.35
20.08
2.72
-2.21
9.62
38.16
78.23
121.28
158.73
185.07
199.04
202.63
198.80
189.63
176.13
159.28
141.17
125.21
114.80
111.62
114.41
119.40
121.89
118.34
107.65
91.21
71.82
52.04
32.97
13.84
-7.41
-32.99
-64.00
-99.68
-137.37
-173.24
-203.32
-224.57
-235.55
-236.51
-229.00
-215.23
-197.36
-177.10
-155.65
-133.89
-112.65
-92.92
-75.86
-62.45
-53.20
-47.94
-45.99
-46.46
-48.55
-51.52
-54.35
-55.54
-53.36
-46.54
-35.00
-19.96
-3.45
12.56
26.68
38.17
46.69
52.20
55.38
58.20
64.06
76.81
98.94
129.63
163.93
193.84
210.87
209.08
187.17
148.76
100.78
51.10
6.21
-30.12
-56.98
-75.59
-88.17
-97.03
-104.05
-110.56
-117.24
-124.09
-130.55
-135.85
-139.25
-140.28
-138.64
-134.00
-126.04
-114.96
-102.05
-89.86
-81.56
-79.63
-84.64
-94.94
-107.56
-119.68
-129.70
-137.15
-141.74
-142.33
-136.74
-122.84
-100.09
-70.57
-38.57
-9.05
14.27
30.12
39.58
45.03
48.64
51.65
54.44
57.30
61.23
67.92
79.07
95.11
114.45
133.54
147.98
153.95
149.19
133.32
107.56
74.44
37.73
2.39
-26.06
-42.79
-45.24
-34.13
-13.33
11.65
35.67
55.47
70.01
79.55
84.43
84.20
77.74
64.26
44.24
19.87
-5.40
-27.82
-44.63
-54.77
-59.01
-59.54
-59.39
-61.64
-68.65
-81.18
-97.99
-115.91
-130.92
-139.79
-141.54
-137.76
-131.79
-127.00
-125.32
-126.70
-129.60
-132.05
-132.29
-128.83
-120.08
-104.26
-79.96
-47.12
-7.81
33.93
73.29
106.14
130.27
145.76
154.32
158.23
159.32
158.41
155.49
150.27
142.75
133.54
123.78
114.92
108.46
105.53
106.45
110.29
114.84
117.25
115.25
108.50
99.23
91.55
89.48
94.77
105.52
116.70
122.43
118.70
105.35
85.89
65.59
49.00
38.10
31.87
27.24
20.88
10.67
-3.68
-21.00
-39.55
-58.03
-75.72
-92.72
-109.70
-127.51
-147.05
-169.25
-194.89
-224.22
-256.90
-290.29
-319.05
-335.98
-334.14
-309.67
-263.74
-202.62
-135.60
-71.68
-16.58
28.32
65.05
96.73
125.37
150.90
171.73
186.15
193.67
195.59
194.38
192.48
191.14
189.57
185.51
176.61
162.01
143.56
125.42
112.37
107.46
110.43
117.57
123.41
122.94
113.55
95.70
72.02
45.81
19.80
-4.19
-24.87
-41.01
-51.63
-56.61
-57.37
-56.62
-57.21
-60.56
-65.63
-69.31
-67.92
-59.15
-43.30
-23.14
-2.54
15.12
27.95
35.46
37.73
34.58
25.36
9.46
-12.86
-39.99
-69.17
-97.07
-120.51
-137.04
-145.22
-144.94
-137.63
-126.12
-114.09
-105.06
-101.35
-103.52
-110.43
-119.91
-129.50
-136.89
-139.94
-136.56
-124.85
-103.64
-73.28
-36.17
3.46
40.47
70.15
89.45
97.65
96.22
88.03
76.17
62.86
49.12
35.11
21.07
8.07
-1.90
-6.51
-4.10
5.75
22.05
42.69
64.71
84.49
97.93
101.30
92.57
72.92
47.23
22.91
6.99
2.96
8.98
18.84
25.27
23.81
14.99
3.76
-3.41
-1.90
9.03
26.52
45.95
63.15
75.74
82.90
84.61
81.02
72.34
59.34
43.68
27.70
13.98
4.58
0.38
0.73
3.34
4.59
0.62
-11.31
-31.50
-57.18
-83.30
-104.23
-115.71
-116.31
-107.53
-92.78
-75.80
-59.43
-45.11
-33.17
-23.42
-15.45
-8.76
-2.56
4.30
13.06
24.40
37.88
51.59
62.69
68.44
67.79
62.24
55.67
52.92
57.70
71.13
91.39
114.57
136.25
152.79
161.96
162.97
156.11
142.52
124.15
103.45
82.90
64.24
47.81
32.60
17.00
-0.19
-18.91
-37.74
-54.43
-66.75
-73.24
-73.55
-68.40
-59.22
-47.66
-35.24
-23.05
-11.64
-1.05
8.83
17.77
24.71
27.91
25.63
17.11
3.21
-13.78
-31.35
-48.10
-64.52
-82.52
-103.89
-128.74
-154.70
-177.60
-193.08
-198.19
-192.25
-176.62
-153.88
-126.99
-98.77
-71.73
-47.77
-27.86
-11.85
1.56
14.17
27.37
41.48
55.79
69.04
80.43
90.11
99.15
109.07
121.37
137.28
157.75
183.15
212.69
243.60
271.25
290.01
295.06
284.15
258.39
221.23
176.42
126.50
72.87
17.59
-34.43
-74.65
-92.88
-81.43
-39.47
24.84
96.10
156.64
192.45
197.25
173.42
129.26
74.85
18.31
-35.53
-84.66
-128.39
-166.22
-197.97
-224.73
-249.70
-277.82
-313.34
-356.86
-403.39
-443.05
-464.38
-459.00
-425.08
-368.18
-298.55
-226.83
-160.25
-100.88
-46.36
7.90
66.21
130.49
199.15
266.96
325.97
367.53
384.94
375.78
342.91
293.17
234.99
175.49
119.00
66.93
18.85
-26.39
-70.26
-114.80
-163.02
-218.32
-282.67
-354.50
-427.52
-491.74
-536.32
-553.64
-542.12
-506.60
-456.01
-399.76
-344.60
-293.42
-246.25
-202.01
-160.07
-120.39
-82.80
-46.22
-8.67
32.08
77.58
128.16
182.86
239.27
293.84
342.10
379.37
401.71
406.91
394.99
367.96
328.73
279.84
223.14
160.48
95.31
33.62
-16.87
-49.28
-61.02
-55.97
-43.84
-36.56
-43.34
-66.75
-101.79
-138.42
-166.06
-177.63
-171.43
-150.33
-119.42
-83.78
-47.44
-13.42
15.66
37.54
50.76
55.49
53.90
49.52
45.87
44.99
46.70
49.02
49.56
47.19
43.00
40.31
43.56
56.64
81.15
115.23
153.40
187.72
210.05
214.83
201.12
173.20
139.17
108.09
86.82
77.75
78.44
83.16
85.51
80.93
68.05
48.61
26.30
5.00
-12.45
-24.78
-31.98
-34.68
-33.60
-29.54
-23.76
-18.29
-15.73
-18.43
-27.58
-42.69
-61.51
-80.59
-96.07
-104.47
-103.59
-93.37
-76.52
-58.35
-45.39
-43.05
-53.21
-73.27
-97.22
-118.28
-131.70
-136.17
-133.18
-124.95
-112.51
-95.35
-72.57
-44.57
-13.89
15.42
39.60
57.04
68.92
78.38
88.54
100.66
113.31
122.96
125.89
120.30
107.58
91.99
78.86
72.42
74.21
82.81
94.80
105.84
111.42
107.16
89.48
57.09
12.87
-35.03
-74.44
-92.83
-82.30
-43.19
15.48
79.34
134.03
169.82
183.52
177.44
156.65
126.43
91.23
54.82
20.95
-6.65
-25.22
-34.18
-35.76
-34.46
-35.35
-41.94
-54.94
-72.38
-90.72
-106.35
-116.78
-121.11
-119.98
-115.17
-109.18
-104.58
-103.40
-106.44
-113.04
-121.39
-129.19
-134.34
-135.29
-130.94
-120.45
-103.33
-79.88
-51.82
-22.55
3.61
22.77
32.90
34.65
31.13
26.62
24.81
27.37
33.47
40.37
44.97
45.38
41.92
37.02
34.04
35.98
44.41
59.15
78.38
98.92
116.75
127.85
129.43
121.14
105.67
88.01
73.68
66.47
67.06
73.10
80.61
85.95
87.16
84.20
78.19
70.44
61.74
52.28
41.86
30.26
17.43
3.54
-11.15
-26.49
-42.55
-59.37
-76.66
-93.58
-108.65
-120.09
-126.11
-125.39
-117.37
-102.68
-83.34
-62.70
-44.85
-33.48
-30.71
-36.19
-47.22
-59.69
-69.56
-74.09
-72.46
-65.48
-54.90
-42.66
-30.55
-19.98
-12.08
-7.47
-6.07
-6.76
-7.50
-5.89
-0.30
8.79
18.23
22.93
18.10
1.72
-23.75
-51.69
-73.58
-81.88
-72.30
-44.50
-1.63
50.54
104.51
151.99
185.53
200.76
198.33
184.26
167.96
158.29
159.79
170.79
184.62
193.04
190.10
174.28
148.20
116.66
84.13
53.20
24.43
-2.77
-28.98
-54.02
-76.97
-96.76
-112.94
-126.07
-137.34
-147.79
-157.55
-165.67
-170.73
-171.65
-168.37
-161.75
-153.04
-143.29
-133.12
-123.06
-113.92
-107.03
-103.71
-104.49
-108.50
-113.67
-117.48
-118.01
-114.51
-107.27
-96.95
-84.03
-68.68
-51.04
-31.86
-12.75
3.97
16.03
22.19
22.89
20.12
16.56
14.33
13.80
13.43
10.65
3.63
-7.26
-19.19
-28.12
-30.82
-26.26
-15.56
-0.94
15.47
31.88
46.49
57.27
62.69
63.21
62.62
67.59
85.14
118.92
166.53
219.93
268.79
305.19
326.92
337.41
342.61
346.99
350.83
350.50
341.19
320.27
289.25
253.28
218.60
189.43
166.36
146.87
127.62
106.81
85.26
65.85
51.97
45.67
46.70
52.71
60.00
64.74
63.82
55.56
40.06
19.18
-3.87
-25.40
-42.36
-53.42
-59.48
-63.43
-69.06
-79.81
-97.69
-123.01
-155.09
-193.01
-236.23
-284.23
-335.41
-386.06
-430.39
-462.01
-476.32
-472.78
-455.22
-430.10
-403.26
-377.16
-350.41
-319.60
-282.33
-239.19
-193.56
-149.40
-108.98
-72.21
-37.94
-6.08
21.50
41.96
54.15
60.46
66.58
78.47
98.83
125.00
149.82
165.11
165.67
151.62
128.07
102.75
82.69
71.91
70.72
76.75
86.66
97.88
109.16
120.22
130.66
139.10
143.21
140.56
129.75
110.97
85.83
56.63
25.71
-4.77
-32.79
-56.63
-75.40
-89.66
-101.53
-113.86
-128.74
-146.10
-163.46
-176.99
-183.16
-180.28
-168.77
-150.38
-126.99
-99.96
-70.34
-39.65
-10.51
13.50
28.86
33.63
28.46
16.63
2.71
-9.31
-17.68
-23.35
-29.03
-37.38
-49.30
-63.11
-75.11
-81.05
-77.61
-63.20
-37.90
-3.22
37.97
81.13
120.24
148.89
162.49
160.58
147.71
132.15
122.51
124.03
136.34
154.13
169.99
178.06
176.29
166.51
152.61
138.22
125.29
113.99
103.53
93.20
83.06
73.81
66.16
60.00
54.03
45.96
33.37
14.81
-9.51
-37.85
-67.86
-97.61
-125.82
-151.35
-172.15
-185.14
-187.30
-177.77
-159.43
-138.66
-122.89
-117.00
-120.70
-128.45
-131.99
-124.05
-101.15
-64.31
-17.66
33.61
84.73
131.75
171.10
199.48
214.33
214.58
201.43
178.25
149.54
119.50
90.77
63.76
37.05
8.57
-22.76
-55.78
-86.71
-110.34
-122.07
-120.10
-106.39
-85.93
-64.58
-47.00
-35.47
-30.36
-31.43
-38.81
-52.81
-72.85
-96.33
-118.54
-134.07
-138.87
-131.70
-114.29
-89.95
-61.74
-31.21
1.78
38.34
79.53
125.47
174.67
223.83
268.17
302.31
321.74
324.15
310.15
282.83
246.36
204.33
158.77
110.30
59.15
6.47
-45.04
-91.22
-127.29
-149.03
-154.03
-142.77
-119.28
-90.83
-66.54
-54.87
-61.10
-85.68
-124.21
-169.17
-212.43
-247.53
-270.73
-280.74
-277.71
-262.45
-236.24
-201.25
-160.98
-120.01
-82.97
-53.13
-31.18
-15.19
-1.65
12.78
29.68
48.40
66.60
81.66
91.93
97.35
99.33
99.92
100.96
103.42
106.93
109.75
109.31
102.92
88.96
67.77
41.64
13.89
-12.52
-35.99
-56.11
-72.40
-83.07
-84.67
-73.18
-46.21
-5.15
44.23
93.24
133.13
158.24
167.23
162.83
149.89
133.22
115.85
98.68
81.28
63.14
44.95
27.73
12.07
-2.52
-17.54
-34.91
-56.02
-81.02
-108.65
-135.91
-160.40
-180.69
-195.50
-202.59
-198.59
-180.20
-146.02
-98.07
-40.69
18.03
68.93
105.46
126.58
136.90
144.44
157.65
182.59
222.60
274.45
329.06
374.74
401.61
404.52
384.07
345.70
287.04
216.41
148.56
96.47
64.33
49.20
46.42
52.50
64.80
79.41
95.03
109.58
120.75
127.34
130.12
131.08
131.44
130.45
128.65
126.36
122.74
116.55
107.17
95.27
82.39
69.78
57.87
46.37
35.28
24.10
12.02
-1.53
-16.55
-32.62
-49.37
-66.68
-84.38
-101.94
-118.87
-134.97
-150.33
-165.33
-180.63
-197.07
-215.37
-235.70
-257.57
-280.15
-302.67
-324.80
-346.78
-369.35
-393.64
-420.94
-452.52
-489.18
-530.48
-574.01
-615.12
-647.61
-665.35
-664.31
-644.01
-607.70
-561.16
-510.53
-460.49
-413.26
-369.06
-327.03
-286.35
-246.60
-207.68
-169.48
-131.72
-94.21
-57.16
-21.40
11.93
41.82
68.26
92.48
116.65
143.01
172.63
204.70
236.32
263.19
280.91
286.48
279.59
263.16
242.89
225.70
217.65
221.84
237.41
259.90
283.06
301.22
311.21
313.05
309.13
302.63
295.92
289.75
283.59
276.32
266.99
255.22
241.21
225.63
209.51
194.29
181.72
173.43
170.19
171.24
174.12
175.18
170.81
158.78
139.10
113.98
87.01
61.87
41.37
26.65
17.23
11.43
7.19
2.64
-3.55
-11.92
-22.27
-33.74
-45.27
-56.03
-65.62
-74.04
-81.56
-88.61
-95.54
-102.47
-109.01
-114.81
-119.86
-124.56
-129.42
-134.79
-140.55
-145.99
-150.06
-150.95
-147.91
-141.62
-133.49
-124.35
-113.71
-100.22
-82.72
-61.40
-36.33
-9.68
15.32
36.55
55.11
75.08
101.39
136.85
180.25
229.03
276.19
312.24
329.09
324.34
302.53
273.47
248.79
238.30
250.86
286.76
336.91
386.43
421.04
431.72
416.73
380.54
307.73
200.96
79.52
-31.33
-115.96
-172.01
-204.41
-219.14
-221.59
-216.83
-205.99
-191.59
-177.37
-167.31
-160.87
-155.69
-148.66
-138.05
-124.00
-105.14
-82.49
-58.86
-37.41
-19.51
-5.21
7.31
19.17
30.57
42.88
55.71
67.74
77.45
84.45
89.40
93.65
98.27
103.80
111.31
120.27
129.67
138.30
145.35
150.35
153.01
152.44
146.69
139.75
132.47
125.07
117.43
109.45
101.17
92.76
84.40
76.36
69.04
61.96
55.00
48.15
41.47
35.05
29.03
23.56
18.81
15.13
12.13
9.74
7.96
6.82
6.45
6.93
8.34
10.81
14.43
18.87
23.86
29.10
34.26
38.91
42.60
44.88
45.38
43.94
40.37
34.81
27.62
19.27
10.23
0.84
-8.68
-18.31
-28.08
-38.04
-48.17
-58.25
-68.07
-77.46
-86.36
-94.89
-103.20
-111.35
-119.20
-126.34
-132.29
-136.63
-139.35
-140.96
-142.39
-144.78
-149.01
-155.47
-163.89
-173.53
-183.52
-193.34
-203.07
-213.44
-225.72
-241.29
-261.23
-285.90
-314.46
-344.68
-373.10
-395.67
-408.73
-410.22
-400.34
-381.54
-357.55
-331.95
-307.05
-283.47
-260.89
-239.18
-219.39
-203.73
-194.66
-193.47
-199.38
-209.50
-219.98
-227.50
-230.47
-229.35
-226.24
-224.11
-226.00
-234.46
-250.89
-274.85
-303.50
-331.73
-353.17
-362.02
-354.97
-332.27
-297.33
-255.38
-211.58
-169.70
-131.86
-98.96
-71.45
-49.60
-33.47
-22.59
-15.80
-11.56
-8.53
-5.97
-4.06
-3.47
-4.92
-8.63
-14.01
-19.79
-24.49
-26.89
-26.49
-23.56
-18.97
-13.76
-8.71
-4.10
0.35
5.19
10.97
17.87
25.62
33.60
41.07
47.53
52.92
57.64
62.43
68.04
74.94
83.07
91.93
100.74
108.80
115.73
121.69
127.22
133.05
139.70
147.25
155.34
163.28
170.46
176.53
181.67
186.48
191.84
198.78
208.21
220.57
235.35
250.74
263.75
271.01
269.98
260.17
243.53
223.86
205.31
190.89
181.54
176.35
173.51
171.41
169.34
167.51
166.66
167.68
171.34
178.16
188.19
200.84
214.82
228.28
239.31
246.49
249.11
247.27
241.38
231.84
218.78
202.23
182.33
159.55
134.69
108.72
82.53
56.82
32.11
8.87
-12.42
-31.16
-46.73
-58.62
-66.66
-71.10
-72.50
-71.45
-68.23
-62.67
-54.22
-42.36
-27.11
-9.31
9.36
26.83
41.14
50.87
55.39
54.91
50.37
43.35
35.89
30.07
27.51
28.84
33.48
39.88
46.16
50.93
53.80
55.56
57.80
62.15
69.58
80.02
92.45
105.58
118.64
131.93
146.76
164.70
186.55
211.41
236.61
258.23
272.20
275.41
266.47
246.06
216.71
182.34
147.32
115.34
88.51
66.99
49.48
34.23
20.29
7.90
-1.74
-7.26
-7.72
-2.68
8.31
26.08
51.37
83.95
121.54
159.74
193.00
216.62
228.31
228.89
221.36
209.37
195.76
181.92
168.15
154.46
141.06
128.36
116.54
105.17
93.24
79.63
63.81
46.08
27.53
9.40
-7.53
-23.25
-38.45
-54.05
-70.67
-88.37
-106.52
-124.06
-139.84
-152.96
-162.98
-169.96
-174.44
-177.25
-179.28
-181.28
-183.51
-185.75
-187.30
-187.41
-185.56
-181.88
-177.13
-172.40
-168.72
-166.62
-165.89
-165.75
-165.07
-162.86
-158.76
-153.35
-148.07
-144.84
-145.17
-149.37
-156.06
-162.49
-165.54
-163.22
-155.74
-145.84
-138.02
-137.05
-146.29
-166.31
-194.06
-223.04
-244.78
-251.22
-237.98
-206.47
-164.21
-122.48
-92.57
-81.76
-91.28
-116.56
-149.53
-181.70
-206.55
-220.67
-223.61
-217.12
-204.22
-188.39
-172.79
-159.69
-150.09
-143.77
-139.80
-136.97
-134.23
-130.78
-125.98
-119.26
-110.05
-97.93
-82.83
-65.14
-45.81
-26.04
-6.97
10.90
27.80
44.51
61.54
78.53
94.12
106.52
114.48
118.11
118.94
119.17
120.53
123.45
126.89
129.09
128.62
125.15
119.51
113.09
107.03
101.68
96.58
90.96
84.30
76.64
68.61
61.29
55.69
52.49
51.82
53.28
56.02
59.06
61.56
63.05
63.56
